loss,accuracy,val_loss,val_accuracy,lr
0.5435469150543213,0.7300000190734863,0.6875861287117004,0.6299999952316284,0.001
0.4222103953361511,0.8399999737739563,0.6816267967224121,0.49000000953674316,0.001
0.38130828738212585,0.8399999737739563,0.769991934299469,0.36000001430511475,0.001
0.32439908385276794,0.8199999928474426,0.9243550300598145,0.36000001430511475,0.001
0.31233304738998413,0.8700000047683716,1.1482903957366943,0.36000001430511475,0.001
0.3129589557647705,0.8600000143051147,1.3677157163619995,0.36000001430511475,0.001
0.24886226654052734,0.9200000166893005,1.8842337131500244,0.36000001430511475,0.001
0.2256244271993637,0.9300000071525574,2.2001936435699463,0.36000001430511475,0.001
0.2302270531654358,0.9300000071525574,2.337385416030884,0.36000001430511475,0.001
0.283059686422348,0.8700000047683716,2.590651512145996,0.36000001430511475,0.001
0.2343304306268692,0.9300000071525574,3.2353742122650146,0.36000001430511475,0.001
0.2808898985385895,0.8399999737739563,3.3847668170928955,0.36000001430511475,0.001
0.349597692489624,0.7699999809265137,3.3550992012023926,0.36000001430511475,0.001
0.3256931006908417,0.8500000238418579,3.4031381607055664,0.36000001430511475,0.001
0.26715609431266785,0.8799999952316284,3.813100814819336,0.36000001430511475,0.001
0.21966888010501862,0.9300000071525574,3.7926058769226074,0.36000001430511475,0.001
0.237960085272789,0.8999999761581421,3.401951313018799,0.36000001430511475,0.001
0.15337887406349182,0.949999988079071,3.369791030883789,0.36000001430511475,0.001
0.19028522074222565,0.9300000071525574,3.2943027019500732,0.36000001430511475,0.001
0.18622182309627533,0.9100000262260437,3.5351574420928955,0.36000001430511475,0.001
0.1565701812505722,0.9399999976158142,3.0616424083709717,0.36000001430511475,0.001
0.15681192278862,0.9700000286102295,3.329211711883545,0.36000001430511475,0.001
0.1738690882921219,0.9300000071525574,2.8168091773986816,0.36000001430511475,0.001
0.16594253480434418,0.9399999976158142,3.335500717163086,0.36000001430511475,0.001
0.15017582476139069,0.949999988079071,2.152677536010742,0.36000001430511475,0.001
0.1611020267009735,0.9599999785423279,2.68209171295166,0.36000001430511475,0.001
0.14460821449756622,0.9700000286102295,2.3816635608673096,0.36000001430511475,0.001
0.18618924915790558,0.9300000071525574,1.633755087852478,0.36000001430511475,0.001
0.12811118364334106,0.9599999785423279,2.319244146347046,0.36000001430511475,0.001
0.11935127526521683,0.9700000286102295,1.2729790210723877,0.3700000047683716,0.001
0.08995672315359116,0.9800000190734863,1.593134880065918,0.36000001430511475,0.001
0.14013855159282684,0.9399999976158142,0.9962978959083557,0.49000000953674316,0.001
0.11328805238008499,0.949999988079071,1.0896586179733276,0.44999998807907104,0.001
0.10024584084749222,0.9700000286102295,1.3840893507003784,0.36000001430511475,0.001
0.12519054114818573,0.949999988079071,0.4587210714817047,0.800000011920929,0.001
0.10980245471000671,0.9599999785423279,0.8335633277893066,0.6000000238418579,0.001
0.09075134992599487,0.9800000190734863,0.48344719409942627,0.7900000214576721,0.001
0.12258542329072952,0.9599999785423279,0.4706289768218994,0.8199999928474426,0.001
0.15559624135494232,0.9599999785423279,1.0397149324417114,0.6800000071525574,0.001
0.1158180981874466,0.949999988079071,0.36206090450286865,0.800000011920929,0.001
0.10530852526426315,0.9599999785423279,0.7493207454681396,0.7099999785423279,0.001
0.09471270442008972,0.9700000286102295,0.399458110332489,0.7900000214576721,0.001
0.08129429072141647,0.9900000095367432,0.5643413662910461,0.7400000095367432,0.001
0.08087899535894394,0.9800000190734863,0.31730905175209045,0.8600000143051147,0.001
0.10972826927900314,0.9599999785423279,0.9172638058662415,0.5799999833106995,0.001
0.0757833868265152,0.9700000286102295,0.43892422318458557,0.8100000023841858,0.001
0.0811302438378334,0.9900000095367432,0.5724800229072571,0.7599999904632568,0.001
0.08342842012643814,0.9800000190734863,0.45001712441444397,0.8299999833106995,0.001
0.07756243646144867,0.9599999785423279,0.46529215574264526,0.8299999833106995,0.001
0.052276477217674255,0.9900000095367432,0.5916219353675842,0.7599999904632568,0.001
0.06812791526317596,0.9800000190734863,0.35591763257980347,0.8700000047683716,0.001
0.07808544486761093,0.9800000190734863,0.30836498737335205,0.8700000047683716,0.001
0.07796932011842728,0.9900000095367432,0.4524625539779663,0.8399999737739563,0.001
0.053568173199892044,1.0,0.29531943798065186,0.8799999952316284,0.001
0.12608899176120758,0.9599999785423279,0.2876039147377014,0.8999999761581421,0.001
0.07440157234668732,0.9900000095367432,0.35358214378356934,0.8700000047683716,0.001
0.05803870037198067,0.9900000095367432,0.3355664312839508,0.8700000047683716,0.001
0.05949407070875168,0.9800000190734863,0.43101879954338074,0.8600000143051147,0.001
0.10585632920265198,0.9300000071525574,0.2885514497756958,0.8600000143051147,0.001
0.05379018932580948,0.9800000190734863,0.3502269983291626,0.8799999952316284,0.001
0.05457014963030815,1.0,0.29137641191482544,0.8799999952316284,0.001
0.10794690996408463,0.949999988079071,0.3609260618686676,0.8600000143051147,0.001
0.18799817562103271,0.9200000166893005,2.2702486515045166,0.6800000071525574,0.001
0.11358124017715454,0.9800000190734863,0.7686176896095276,0.800000011920929,0.001
0.12083146721124649,0.9599999785423279,0.6368550658226013,0.8299999833106995,0.001
0.09034896641969681,0.9800000190734863,0.33304256200790405,0.8700000047683716,0.001
0.07051864266395569,0.9800000190734863,0.6150946021080017,0.7900000214576721,0.001
0.04136405512690544,1.0,0.47524112462997437,0.8500000238418579,0.001
0.029137270525097847,1.0,0.347202330827713,0.8600000143051147,0.001
0.05682167038321495,0.9900000095367432,0.3557209074497223,0.8799999952316284,0.001
0.037504829466342926,1.0,0.5805602073669434,0.8100000023841858,0.001
0.03880113735795021,1.0,0.4883224070072174,0.8600000143051147,0.001
0.05281177908182144,0.9800000190734863,1.0059868097305298,0.699999988079071,0.001
0.04944261163473129,0.9900000095367432,1.874207615852356,0.4300000071525574,0.001
0.030477382242679596,1.0,0.6199307441711426,0.8299999833106995,0.001
0.048090118914842606,0.9800000190734863,0.2995902895927429,0.8700000047683716,0.001
0.09939850866794586,0.9599999785423279,1.257991075515747,0.4699999988079071,0.001
0.037898510694503784,1.0,0.34698718786239624,0.8799999952316284,0.001
0.04320939630270004,0.9900000095367432,0.3745668828487396,0.8600000143051147,0.001
0.025498371571302414,1.0,0.3280617594718933,0.8799999952316284,0.001
0.020825542509555817,1.0,0.4437134861946106,0.8500000238418579,0.001
0.03227755054831505,1.0,0.3694894015789032,0.8500000238418579,0.001
0.041160356253385544,0.9900000095367432,0.7745659351348877,0.8100000023841858,0.001
0.02492404915392399,1.0,0.32336628437042236,0.8899999856948853,0.001
0.057964175939559937,0.9800000190734863,0.36981719732284546,0.8799999952316284,0.001
0.06328324973583221,0.9900000095367432,2.7177908420562744,0.6600000262260437,0.001
0.12982946634292603,0.949999988079071,1.5081156492233276,0.75,0.001
0.09306168556213379,0.9599999785423279,0.5783235430717468,0.8799999952316284,0.001
0.09027505666017532,0.9599999785423279,0.4553026258945465,0.8600000143051147,0.001
0.04252101853489876,0.9900000095367432,0.7760356068611145,0.6899999976158142,0.001
0.06645604968070984,0.9800000190734863,0.31543686985969543,0.8999999761581421,0.001
0.030298221856355667,1.0,0.33616721630096436,0.8600000143051147,0.001
0.0464475043118,0.9800000190734863,0.4064870774745941,0.8399999737739563,0.001
0.03055599145591259,1.0,0.36599600315093994,0.8899999856948853,0.001
0.025012249127030373,1.0,0.3557003140449524,0.8600000143051147,0.001
0.016265245154500008,1.0,0.3225212097167969,0.8999999761581421,0.001
0.018184076994657516,1.0,0.38089075684547424,0.8899999856948853,0.001
0.04931046441197395,0.9900000095367432,0.3432300090789795,0.8899999856948853,0.001
0.028566354885697365,1.0,0.5373712182044983,0.8299999833106995,0.001
0.01513327844440937,1.0,0.5745492577552795,0.8299999833106995,0.001
0.03361513093113899,0.9900000095367432,0.36559659242630005,0.8600000143051147,0.001
0.02387923002243042,0.9900000095367432,0.3275023400783539,0.8899999856948853,0.001
0.02895660698413849,1.0,0.48635634779930115,0.8600000143051147,0.001
0.041650108993053436,0.9900000095367432,0.733517050743103,0.800000011920929,0.001
0.016947496682405472,1.0,0.34581610560417175,0.8700000047683716,0.001
0.04952229931950569,0.9800000190734863,0.42378196120262146,0.8799999952316284,0.001
0.03987855464220047,0.9800000190734863,0.3029051125049591,0.8899999856948853,0.001
0.03586762771010399,1.0,0.8238466382026672,0.6600000262260437,0.001
0.018772579729557037,1.0,0.31849202513694763,0.8999999761581421,0.001
0.011040193028748035,1.0,0.3167085349559784,0.8999999761581421,0.001
0.010557758621871471,1.0,0.33261287212371826,0.8899999856948853,0.001
0.009646138176321983,1.0,0.36233603954315186,0.8899999856948853,0.001
0.01075444370508194,1.0,0.3741084933280945,0.8700000047683716,0.001
0.006805817596614361,1.0,0.364647775888443,0.8999999761581421,0.001
0.004128342494368553,1.0,0.40253856778144836,0.8899999856948853,0.001
0.005844718310981989,1.0,0.3397023677825928,0.8999999761581421,0.001
0.005388492252677679,1.0,0.35847190022468567,0.8700000047683716,0.001
0.003540518693625927,1.0,0.36328884959220886,0.8899999856948853,0.001
0.0031689403112977743,1.0,0.38052836060523987,0.8999999761581421,0.001
0.006083842366933823,1.0,0.36522480845451355,0.8899999856948853,0.001
0.008117475546896458,1.0,0.5946382880210876,0.8500000238418579,0.001
0.02207949571311474,0.9900000095367432,0.48383423686027527,0.8799999952316284,0.001
0.09445502609014511,0.949999988079071,0.5295979380607605,0.8299999833106995,0.001
0.07343065738677979,0.9800000190734863,3.947075843811035,0.6700000166893005,0.001
0.045637521892786026,0.9900000095367432,0.43828609585762024,0.8399999737739563,0.001
0.036150332540273666,1.0,0.5723153948783875,0.8600000143051147,0.001
0.04051182419061661,0.9800000190734863,1.7018513679504395,0.7200000286102295,0.001
0.021368112415075302,1.0,0.3592454493045807,0.8899999856948853,0.001
0.014223393984138966,1.0,0.3885999619960785,0.8600000143051147,0.001
0.008984360843896866,1.0,0.3763546347618103,0.8500000238418579,0.001
0.01762256771326065,1.0,0.34832218289375305,0.8899999856948853,0.001
0.0060514784418046474,1.0,0.36507242918014526,0.8600000143051147,0.001
0.007577067241072655,1.0,0.40083572268486023,0.8399999737739563,0.001
0.0026583299040794373,1.0,0.3796807825565338,0.8899999856948853,0.001
0.012161207385361195,1.0,0.3876793682575226,0.8799999952316284,0.001
0.009310767985880375,1.0,0.3787309527397156,0.8899999856948853,0.001
0.0034290608018636703,1.0,0.36568477749824524,0.8899999856948853,0.001
0.007015767507255077,1.0,0.37995272874832153,0.8899999856948853,0.001
0.004332238808274269,1.0,0.5141690969467163,0.8700000047683716,0.001
0.002903152722865343,1.0,0.42607352137565613,0.8600000143051147,0.001
0.006518600042909384,1.0,0.3892495632171631,0.8899999856948853,0.001
0.007621509954333305,1.0,0.4213668704032898,0.8899999856948853,0.001
0.03224802389740944,0.9900000095367432,0.4265210032463074,0.8600000143051147,0.001
0.03745805472135544,0.9900000095367432,3.8061001300811768,0.6700000166893005,0.001
0.16061000525951385,0.9100000262260437,0.66341233253479,0.8600000143051147,0.001
0.0487736351788044,1.0,1.247756838798523,0.7099999785423279,0.001
0.037143681198358536,0.9900000095367432,7.116144180297852,0.36000001430511475,0.001
0.046255797147750854,0.9700000286102295,1.1440589427947998,0.7400000095367432,0.001
0.024068323895335197,1.0,1.6968134641647339,0.550000011920929,0.001
0.019239164888858795,1.0,3.0856218338012695,0.38999998569488525,0.001
0.011327548883855343,1.0,0.9015751481056213,0.800000011920929,0.001
0.016071733087301254,1.0,0.4638150930404663,0.8500000238418579,0.001
0.0158822201192379,1.0,0.3873875141143799,0.8600000143051147,0.001
0.006728132255375385,1.0,0.41747865080833435,0.8899999856948853,0.001
0.011029863730072975,1.0,0.44486361742019653,0.8899999856948853,0.001
0.004258082248270512,1.0,0.4053056240081787,0.8700000047683716,0.001
0.011077136732637882,1.0,0.376723974943161,0.8700000047683716,0.001
0.005222626496106386,1.0,0.3732205331325531,0.8899999856948853,0.001
0.036714497953653336,0.9800000190734863,0.3724926710128784,0.8700000047683716,0.001
0.16428695619106293,0.9200000166893005,1.0127959251403809,0.7699999809265137,0.001
0.06989755481481552,0.949999988079071,2.184654951095581,0.5600000023841858,0.001
0.1011325865983963,0.9599999785423279,12.530073165893555,0.36000001430511475,0.001
0.0659165158867836,0.9700000286102295,0.49249595403671265,0.8600000143051147,0.001
0.042344994843006134,0.9900000095367432,0.3767186403274536,0.8600000143051147,0.001
0.027188889682292938,1.0,0.37874382734298706,0.8999999761581421,0.001
0.037632331252098083,0.9900000095367432,0.9888954162597656,0.7099999785423279,0.001
0.023214606568217278,1.0,0.3940611779689789,0.8799999952316284,0.001
0.014551408588886261,1.0,0.5493842363357544,0.8399999737739563,0.001
0.010403655469417572,1.0,0.48092424869537354,0.8399999737739563,0.001
0.004630315117537975,1.0,0.3757256269454956,0.8899999856948853,0.001
0.004770365543663502,1.0,0.36857497692108154,0.8899999856948853,0.001
0.007959011010825634,1.0,0.3659856915473938,0.8899999856948853,0.001
0.0074404324404895306,1.0,0.39745163917541504,0.8999999761581421,0.001
0.00373413716442883,1.0,0.4062296748161316,0.8799999952316284,0.001
0.0033581366296857595,1.0,0.3666616678237915,0.8999999761581421,0.001
0.005339909344911575,1.0,0.35642990469932556,0.8999999761581421,0.001
0.005105627700686455,1.0,0.3583579659461975,0.8899999856948853,0.001
0.0032838170882314444,1.0,0.358791321516037,0.8899999856948853,0.001
0.0019524700473994017,1.0,0.3633936941623688,0.8899999856948853,0.001
0.002765909070149064,1.0,0.36924073100090027,0.8899999856948853,0.001
0.0013542254455387592,1.0,0.37744060158729553,0.8899999856948853,0.001
0.0028655461501330137,1.0,0.40645352005958557,0.8999999761581421,0.001
0.002126428298652172,1.0,0.4237828552722931,0.8899999856948853,0.001
0.002534584142267704,1.0,0.4099980294704437,0.8899999856948853,0.001
0.0018982484471052885,1.0,0.40260419249534607,0.8999999761581421,0.001
0.0018484548199921846,1.0,0.39533188939094543,0.8899999856948853,0.001
0.0046135555021464825,1.0,0.4379936456680298,0.8700000047683716,0.001
0.0018322771647945046,1.0,0.45937633514404297,0.8700000047683716,0.001
0.0016245144652202725,1.0,0.4389907121658325,0.8899999856948853,0.001
0.0019769095815718174,1.0,0.41378799080848694,0.8999999761581421,0.001
0.00429829815402627,1.0,0.3998061418533325,0.8999999761581421,0.001
0.002330855932086706,1.0,0.412240594625473,0.8999999761581421,0.001
0.001529933768324554,1.0,0.44255369901657104,0.8999999761581421,0.001
0.0010253943037241697,1.0,0.4571184813976288,0.8899999856948853,0.001
0.0007756914710626006,1.0,0.4503088891506195,0.8899999856948853,0.001
0.0017823894741013646,1.0,0.44146016240119934,0.8799999952316284,0.001
0.003240130143240094,1.0,0.42951500415802,0.8799999952316284,0.001
0.0016900014597922564,1.0,0.419962614774704,0.8799999952316284,0.001
0.0012303570983931422,1.0,0.42478516697883606,0.8899999856948853,0.001
0.0018024247838184237,1.0,0.4202815592288971,0.8899999856948853,0.001
0.0006680603255517781,1.0,0.41958263516426086,0.8799999952316284,0.001
0.0018937609856948256,1.0,0.4280000627040863,0.8799999952316284,0.001
0.0006984653882682323,1.0,0.4547841250896454,0.8999999761581421,0.001
0.009264620952308178,1.0,0.4774533808231354,0.8700000047683716,0.001
0.004385407082736492,1.0,0.3807064890861511,0.8899999856948853,0.001
0.0010423659114167094,1.0,0.4371098577976227,0.8999999761581421,0.001
0.0017703836783766747,1.0,0.4141222834587097,0.8899999856948853,0.001
0.024289431050419807,1.0,0.5589921474456787,0.8600000143051147,0.001
0.06112370640039444,0.9599999785423279,2.0451302528381348,0.47999998927116394,0.001
0.30644917488098145,0.8600000143051147,9.381139755249023,0.6399999856948853,0.001
0.19661308825016022,0.8999999761581421,8.745694160461426,0.6399999856948853,0.001
0.10875467211008072,0.949999988079071,7.166082859039307,0.6399999856948853,0.001
0.12259170413017273,0.9300000071525574,1.0835925340652466,0.7300000190734863,0.001
0.12481685727834702,0.9300000071525574,0.572102427482605,0.8500000238418579,0.001
0.06026552617549896,0.9700000286102295,1.589091181755066,0.7099999785423279,0.001
0.09231634438037872,0.9700000286102295,0.9080709218978882,0.8100000023841858,0.001
0.057383112609386444,0.9900000095367432,0.4083830714225769,0.8700000047683716,0.001
0.06929253786802292,0.9800000190734863,0.7604601383209229,0.6899999976158142,0.001
0.04728413000702858,0.9800000190734863,0.8619504570960999,0.7900000214576721,0.001
0.06251552700996399,0.9599999785423279,1.4666751623153687,0.75,0.001
0.019798679277300835,1.0,0.4618243873119354,0.8899999856948853,0.001
0.04612269252538681,0.9700000286102295,0.37376198172569275,0.8999999761581421,0.001
0.03226863592863083,1.0,0.7946943044662476,0.7900000214576721,0.001
0.018833501264452934,1.0,1.103968858718872,0.6800000071525574,0.001
0.011349596083164215,1.0,0.45832690596580505,0.8500000238418579,0.001
0.010419384576380253,1.0,0.3767299950122833,0.8500000238418579,0.001
0.03346771374344826,0.9900000095367432,0.45185452699661255,0.8500000238418579,0.001
0.012054250575602055,1.0,0.32378819584846497,0.8600000143051147,0.001
0.008090710267424583,1.0,0.3715457022190094,0.8899999856948853,0.001
0.00286104716360569,1.0,0.38745343685150146,0.8899999856948853,0.001
0.002325755776837468,1.0,0.3901764750480652,0.8700000047683716,0.001
0.002879486186429858,1.0,0.39184123277664185,0.8700000047683716,0.001
0.00173996074590832,1.0,0.39328742027282715,0.8700000047683716,0.001
0.0091490363702178,1.0,0.3657873868942261,0.8700000047683716,0.001
0.0024414770305156708,1.0,0.37366700172424316,0.8899999856948853,0.001
0.002025662688538432,1.0,0.38747450709342957,0.8899999856948853,0.001
0.002330194925889373,1.0,0.39285334944725037,0.8799999952316284,0.001
0.002116503193974495,1.0,0.39469659328460693,0.8799999952316284,0.001
0.005722991190850735,1.0,0.42939653992652893,0.8899999856948853,0.001
0.002523437375202775,1.0,0.40926361083984375,0.8799999952316284,0.001
0.004080335143953562,1.0,0.40096864104270935,0.8899999856948853,0.001
0.003440967295318842,1.0,0.41160714626312256,0.8999999761581421,0.001
0.007682442665100098,1.0,0.3759271502494812,0.8899999856948853,0.001
0.0010644863359630108,1.0,0.37223079800605774,0.8899999856948853,0.001
0.0026359527837485075,1.0,0.37746965885162354,0.8799999952316284,0.001
0.0011043641716241837,1.0,0.3912723660469055,0.8899999856948853,0.001
0.15156368911266327,0.9200000166893005,0.5396640300750732,0.8299999833106995,0.001
0.035624708980321884,0.9900000095367432,0.5387824773788452,0.8600000143051147,0.001
0.03024877980351448,0.9900000095367432,7.329139232635498,0.6399999856948853,0.001
0.022769112139940262,0.9900000095367432,0.9015040397644043,0.7799999713897705,0.001
0.026779677718877792,0.9900000095367432,0.46440932154655457,0.8899999856948853,0.001
0.024410713464021683,0.9900000095367432,0.4744515120983124,0.8600000143051147,0.0005
0.02166709490120411,1.0,0.46191900968551636,0.8600000143051147,0.0005
0.011413084343075752,1.0,0.4510217010974884,0.8600000143051147,0.0005
0.011072924360632896,1.0,0.5072498321533203,0.8899999856948853,0.0005
0.0065750377252697945,1.0,0.7437389492988586,0.8299999833106995,0.0005
0.004889920819550753,1.0,0.7080230116844177,0.8399999737739563,0.0005
0.01045098528265953,1.0,0.5815175771713257,0.8700000047683716,0.0005
0.002312874188646674,1.0,0.5256251692771912,0.8899999856948853,0.0005
0.004073774442076683,1.0,0.4805107116699219,0.8899999856948853,0.0005
0.0025870692916214466,1.0,0.4609311819076538,0.8899999856948853,0.0005
0.006018796935677528,1.0,0.46170008182525635,0.8899999856948853,0.0005
0.0060425736010074615,1.0,0.4576911926269531,0.8899999856948853,0.0005
0.004116670228540897,1.0,0.4587000608444214,0.8899999856948853,0.0005
0.001915565924718976,1.0,0.45785677433013916,0.8799999952316284,0.0005
0.004934164695441723,1.0,0.4560442268848419,0.8899999856948853,0.0005
0.00419681565836072,1.0,0.45095130801200867,0.8799999952316284,0.0005
0.0014811609871685505,1.0,0.44585272669792175,0.8899999856948853,0.0005
0.0037410645745694637,1.0,0.4616642892360687,0.8899999856948853,0.0005
0.006126241758465767,1.0,0.5346778631210327,0.8700000047683716,0.0005
0.005274349357932806,1.0,0.5364640951156616,0.8799999952316284,0.0005
0.002146160462871194,1.0,0.5149828195571899,0.8700000047683716,0.0005
0.003100837115198374,1.0,0.5146664977073669,0.8700000047683716,0.0005
0.005642942152917385,1.0,0.5095285177230835,0.8799999952316284,0.0005
0.0020271840039640665,1.0,0.5191522836685181,0.8899999856948853,0.0005
0.004997032694518566,1.0,0.4834009110927582,0.8799999952316284,0.0005
0.0011477322550490499,1.0,0.4692867398262024,0.8899999856948853,0.0005
0.0011830163421109319,1.0,0.4580809772014618,0.8899999856948853,0.0005
0.008435990661382675,1.0,0.4362480938434601,0.8799999952316284,0.0005
0.0038792314007878304,1.0,0.44423091411590576,0.8899999856948853,0.0005
0.004561654757708311,1.0,0.4415193498134613,0.8899999856948853,0.0005
0.0023680515587329865,1.0,0.42989882826805115,0.8799999952316284,0.0005
0.001697239000350237,1.0,0.42274710536003113,0.8999999761581421,0.0005
0.0017289727693423629,1.0,0.42436397075653076,0.8899999856948853,0.0005
0.0013095656177029014,1.0,0.4289347529411316,0.8899999856948853,0.0005
0.0012539613526314497,1.0,0.4314955174922943,0.8899999856948853,0.0005
0.0012537016300484538,1.0,0.43753185868263245,0.8899999856948853,0.0005
0.0035832368303090334,1.0,0.4409581124782562,0.8899999856948853,0.0005
0.0013458379544317722,1.0,0.4452098608016968,0.8899999856948853,0.0005
0.00246203294955194,1.0,0.4490135908126831,0.8899999856948853,0.0005
0.011954900808632374,0.9900000095367432,0.40852242708206177,0.8999999761581421,0.0005
0.010870729573071003,1.0,0.41596317291259766,0.8999999761581421,0.0005
0.004515388514846563,1.0,0.4493738114833832,0.8899999856948853,0.0005
0.0017316517187282443,1.0,0.47041624784469604,0.8899999856948853,0.0005
0.0020021155942231417,1.0,0.4797630310058594,0.8899999856948853,0.0005
0.0030803086701780558,1.0,0.4775201678276062,0.8899999856948853,0.0005
0.0009980951435863972,1.0,0.48836880922317505,0.8899999856948853,0.0005
0.001201758859679103,1.0,0.48728275299072266,0.8899999856948853,0.0005
0.0013066285755485296,1.0,0.48117202520370483,0.8899999856948853,0.0005
0.0009087399230338633,1.0,0.48003682494163513,0.8899999856948853,0.0005
0.0021502934396266937,1.0,0.48068541288375854,0.8700000047683716,0.0005
0.0012147199595347047,1.0,0.4823848605155945,0.8799999952316284,0.00025
0.0011992801446467638,1.0,0.4846288561820984,0.8899999856948853,0.00025
0.001283535035327077,1.0,0.4863624572753906,0.8899999856948853,0.00025
0.0013365618651732802,1.0,0.488535076379776,0.8899999856948853,0.00025
0.0012606717646121979,1.0,0.4932779371738434,0.8899999856948853,0.00025
0.0007953362655825913,1.0,0.4941384196281433,0.8899999856948853,0.00025
0.0033037872053682804,1.0,0.4965760111808777,0.8899999856948853,0.00025
0.002817245665937662,1.0,0.5027788281440735,0.8899999856948853,0.00025
0.001674744300544262,1.0,0.508380651473999,0.8899999856948853,0.00025
0.0006578881293535233,1.0,0.5155990123748779,0.8899999856948853,0.00025
0.001263505662791431,1.0,0.5158651471138,0.8799999952316284,0.00025
0.0005916248192079365,1.0,0.5137450098991394,0.8899999856948853,0.00025
0.0008048461168073118,1.0,0.5088691115379333,0.8899999856948853,0.00025
0.002486773766577244,1.0,0.5045090913772583,0.8999999761581421,0.00025
0.004463552497327328,1.0,0.505703330039978,0.8899999856948853,0.00025
0.0004990852903574705,1.0,0.5145361423492432,0.8899999856948853,0.00025
0.0006796849775128067,1.0,0.5168089270591736,0.8799999952316284,0.00025
0.0011062478879466653,1.0,0.5155293941497803,0.8899999856948853,0.00025
0.001012896653264761,1.0,0.507559061050415,0.8899999856948853,0.00025
0.0018080335576087236,1.0,0.5042474865913391,0.8899999856948853,0.00025
0.0010222714627161622,1.0,0.49786368012428284,0.8899999856948853,0.00025
0.0009692743187770247,1.0,0.49569112062454224,0.8899999856948853,0.00025
0.0004763204196933657,1.0,0.49522554874420166,0.8899999856948853,0.00025
0.002341177547350526,1.0,0.5039610862731934,0.8899999856948853,0.00025
0.0019012998091056943,1.0,0.5024027824401855,0.8899999856948853,0.00025
0.0013746926560997963,1.0,0.5043584704399109,0.8799999952316284,0.00025
0.0006636106409132481,1.0,0.5059451460838318,0.8899999856948853,0.00025
0.0006476099952124059,1.0,0.503826916217804,0.8899999856948853,0.00025
0.0007548689609393477,1.0,0.5054229497909546,0.8899999856948853,0.00025
0.0006705213454551995,1.0,0.5053304433822632,0.8799999952316284,0.00025
0.0010299889836460352,1.0,0.5006381273269653,0.8899999856948853,0.00025
0.0005131030338816345,1.0,0.4993245601654053,0.8899999856948853,0.00025
0.0004726285405922681,1.0,0.4980391263961792,0.8899999856948853,0.00025
0.0003406491596251726,1.0,0.4975147247314453,0.8899999856948853,0.00025
0.001264571794308722,1.0,0.4971367120742798,0.8899999856948853,0.00025
0.0010414590360596776,1.0,0.4957728087902069,0.8899999856948853,0.00025
0.00458882562816143,1.0,0.5071179866790771,0.8799999952316284,0.00025
0.0018839979311451316,1.0,0.51372230052948,0.8799999952316284,0.00025
0.008794575929641724,1.0,0.5704629421234131,0.8799999952316284,0.00025
0.0012224593665450811,1.0,0.6138331890106201,0.8700000047683716,0.00025
0.0014043920673429966,1.0,0.5873110294342041,0.8799999952316284,0.00025
0.0022181286476552486,1.0,0.578523576259613,0.8799999952316284,0.00025
0.0008590040961280465,1.0,0.5687549114227295,0.8799999952316284,0.00025
0.002940555801615119,1.0,0.5528209209442139,0.8799999952316284,0.00025
0.0015473609091714025,1.0,0.5510035157203674,0.8799999952316284,0.00025
0.001860167132690549,1.0,0.5325506329536438,0.8799999952316284,0.00025
0.0036350262816995382,1.0,0.5084094405174255,0.8899999856948853,0.00025
0.0022292654030025005,1.0,0.49241751432418823,0.8899999856948853,0.00025
0.0003886241465806961,1.0,0.48597046732902527,0.8899999856948853,0.00025
0.0018880272982642055,1.0,0.4821140170097351,0.8899999856948853,0.00025
0.0003870162763632834,1.0,0.48252975940704346,0.8899999856948853,0.00025
0.001093697384931147,1.0,0.48574984073638916,0.8899999856948853,0.00025
0.001234256662428379,1.0,0.49900099635124207,0.8899999856948853,0.00025
0.001115102437324822,1.0,0.5146257281303406,0.8899999856948853,0.00025
0.0013506895629689097,1.0,0.5083246827125549,0.8899999856948853,0.00025
0.00037744431756436825,1.0,0.5059380531311035,0.8999999761581421,0.00025
0.00086320994887501,1.0,0.5040570497512817,0.8999999761581421,0.00025
0.0013442066265270114,1.0,0.501910924911499,0.8899999856948853,0.00025
0.00044297389104031026,1.0,0.49929335713386536,0.8899999856948853,0.00025
0.0065294592641294,1.0,0.5082382559776306,0.8899999856948853,0.00025
0.0009345414582639933,1.0,0.5285654664039612,0.8899999856948853,0.00025
0.0015972607070580125,1.0,0.5383331179618835,0.8899999856948853,0.00025
0.0005890125758014619,1.0,0.5380187034606934,0.8899999856948853,0.00025
0.0017949641915038228,1.0,0.5212441086769104,0.8899999856948853,0.00025
0.0017079529352486134,1.0,0.5139063000679016,0.8899999856948853,0.00025
0.0007270944188348949,1.0,0.511126697063446,0.8899999856948853,0.00025
0.00021708755230065435,1.0,0.5091838240623474,0.8899999856948853,0.00025
0.00039757543709129095,1.0,0.5092854499816895,0.8899999856948853,0.00025
0.0005717743770219386,1.0,0.5083228945732117,0.8899999856948853,0.00025
0.0005423955735750496,1.0,0.504798173904419,0.8899999856948853,0.00025
0.0005501329433172941,1.0,0.5041331648826599,0.8899999856948853,0.00025
0.002224053256213665,1.0,0.5045545101165771,0.8899999856948853,0.00025
0.0005853238981217146,1.0,0.5044025182723999,0.8899999856948853,0.00025
0.001026785816065967,1.0,0.507910430431366,0.8899999856948853,0.00025
0.00022225367138162255,1.0,0.5092858076095581,0.8899999856948853,0.00025
0.0005948608159087598,1.0,0.5094324350357056,0.8899999856948853,0.00025
0.0005265756626613438,1.0,0.5087926983833313,0.8899999856948853,0.00025
0.0028471096884459257,1.0,0.536425769329071,0.8799999952316284,0.00025
0.001174815115518868,1.0,0.5438748002052307,0.8799999952316284,0.00025
0.0009384003933519125,1.0,0.531968891620636,0.8899999856948853,0.00025
0.0005825163680128753,1.0,0.5188825726509094,0.8899999856948853,0.00025
0.0003009962965734303,1.0,0.5140085816383362,0.8899999856948853,0.00025
0.00040094886207953095,1.0,0.5114312171936035,0.8899999856948853,0.00025
0.0005126259638927877,1.0,0.5066109299659729,0.8899999856948853,0.00025
0.0005733024445362389,1.0,0.5061152577400208,0.8899999856948853,0.00025
0.0004896557074971497,1.0,0.507896900177002,0.8899999856948853,0.00025
0.001042695133946836,1.0,0.5039440393447876,0.8899999856948853,0.00025
0.0014002167154103518,1.0,0.5021465420722961,0.8899999856948853,0.00025
0.0011027425061911345,1.0,0.5032304525375366,0.8899999856948853,0.00025
0.003094498300924897,1.0,0.5091776847839355,0.8899999856948853,0.00025
0.00047266139881685376,1.0,0.5180698037147522,0.8999999761581421,0.00025
0.000691743625793606,1.0,0.5209057331085205,0.8999999761581421,0.00025
0.0008396324701607227,1.0,0.5188528299331665,0.8999999761581421,0.00025
0.001580634736455977,1.0,0.5179011821746826,0.8899999856948853,0.00025
0.0009375175577588379,1.0,0.5181604027748108,0.8899999856948853,0.00025
0.0017052462790161371,1.0,0.5296547412872314,0.8999999761581421,0.00025
0.0010398960439488292,1.0,0.5314130187034607,0.8899999856948853,0.00025
0.0005479052779264748,1.0,0.5250638127326965,0.8899999856948853,0.00025
0.0003936771536245942,1.0,0.5219235420227051,0.8899999856948853,0.00025
0.0005368878482840955,1.0,0.5199242234230042,0.8799999952316284,0.00025
0.0004185490543022752,1.0,0.5150864720344543,0.8899999856948853,0.00025
0.0008094249642454088,1.0,0.5141023397445679,0.8899999856948853,0.00025
0.002470749896019697,1.0,0.5154519081115723,0.8899999856948853,0.00025
0.0014237244613468647,1.0,0.5256521105766296,0.8799999952316284,0.00025
0.0013467258540913463,1.0,0.5235615968704224,0.8899999856948853,0.00025
0.0003633705200627446,1.0,0.5192263126373291,0.8899999856948853,0.00025
0.0004739649302791804,1.0,0.5175846219062805,0.8799999952316284,0.00025
0.0004279740387573838,1.0,0.5177519917488098,0.8799999952316284,0.00025
0.0005843097460456192,1.0,0.5140146017074585,0.8899999856948853,0.00025
0.001324793673120439,1.0,0.5228697657585144,0.8899999856948853,0.00025
0.0003628408594522625,1.0,0.5282555222511292,0.8899999856948853,0.00025
0.0036649948451668024,1.0,0.4999212622642517,0.8899999856948853,0.00025
0.00045304582454264164,1.0,0.5729562044143677,0.8600000143051147,0.00025
0.001946206553839147,1.0,0.5517423152923584,0.8500000238418579,0.00025
0.00030488581978715956,1.0,0.5212796926498413,0.8700000047683716,0.00025
0.0006676877965219319,1.0,0.5144110321998596,0.8899999856948853,0.00025
0.0024308739230036736,1.0,0.518420934677124,0.8899999856948853,0.00025
0.0010693763615563512,1.0,0.5198155045509338,0.8899999856948853,0.000125
0.00036341696977615356,1.0,0.5178465247154236,0.8899999856948853,0.000125
0.002136821625754237,1.0,0.5303894877433777,0.8999999761581421,0.000125
0.00042302897782064974,1.0,0.541228175163269,0.8899999856948853,0.000125
0.0005975175299681723,1.0,0.5440447330474854,0.8899999856948853,0.000125
0.000683198741171509,1.0,0.5432397723197937,0.8899999856948853,0.000125
0.00046595896128565073,1.0,0.540341317653656,0.8899999856948853,0.000125
0.000776932924054563,1.0,0.537779688835144,0.8899999856948853,0.000125
0.0002782145456876606,1.0,0.5346826314926147,0.8899999856948853,0.000125
0.00021005440794397146,1.0,0.5311248898506165,0.8899999856948853,0.000125
0.00016654007777106017,1.0,0.5287520885467529,0.8799999952316284,0.000125
0.0006297779618762434,1.0,0.5306904911994934,0.8799999952316284,0.000125
0.0009138464811258018,1.0,0.5362639427185059,0.8799999952316284,0.000125
0.0002683518687263131,1.0,0.5367118716239929,0.8799999952316284,0.000125
0.00023888798023108393,1.0,0.5343031883239746,0.8799999952316284,0.000125
0.0006329461466521025,1.0,0.5309796333312988,0.8899999856948853,0.000125
0.0013119349023327231,1.0,0.5338991284370422,0.8899999856948853,0.000125
0.0004903812659904361,1.0,0.541898250579834,0.8799999952316284,0.000125
0.004355099983513355,1.0,0.5118750929832458,0.8899999856948853,0.000125
0.0032423522789031267,1.0,0.5190860033035278,0.8999999761581421,0.000125
0.0011613748501986265,1.0,0.5279567241668701,0.8899999856948853,0.000125
0.0008925637812353671,1.0,0.5267590284347534,0.8899999856948853,0.000125
0.002796995686367154,1.0,0.5125246644020081,0.8899999856948853,0.000125
0.0009925796184688807,1.0,0.511079728603363,0.8899999856948853,0.000125
0.00022353300300892442,1.0,0.5106369256973267,0.8899999856948853,0.000125
0.0005446462891995907,1.0,0.5110551118850708,0.8899999856948853,0.000125
0.0010751616209745407,1.0,0.5144249796867371,0.8899999856948853,0.000125
0.0007434517610818148,1.0,0.5182983875274658,0.8899999856948853,0.000125
0.00048311316641047597,1.0,0.5219728350639343,0.8899999856948853,0.000125
0.0005708669777959585,1.0,0.5236006379127502,0.8899999856948853,0.000125
0.0006491148378700018,1.0,0.5238298177719116,0.8899999856948853,0.000125
0.0003987865929957479,1.0,0.5218168497085571,0.8899999856948853,0.000125
0.00029623290174640715,1.0,0.5211414694786072,0.8899999856948853,0.000125
0.0002246457734145224,1.0,0.5213987827301025,0.8899999856948853,0.000125
0.00028412556275725365,1.0,0.5211766958236694,0.8899999856948853,0.000125
0.000807194272056222,1.0,0.5223940014839172,0.8899999856948853,0.000125
0.0001946142438100651,1.0,0.5224190354347229,0.8899999856948853,0.000125
0.00018935956177301705,1.0,0.5219489336013794,0.8899999856948853,0.000125
0.0011560495477169752,1.0,0.52594393491745,0.8899999856948853,0.000125
0.0011472117621451616,1.0,0.5292808413505554,0.8899999856948853,0.000125
0.00031260098330676556,1.0,0.5320773124694824,0.8999999761581421,0.000125
0.00045358308125287294,1.0,0.5325847864151001,0.8999999761581421,0.000125
0.00039633619599044323,1.0,0.5313277840614319,0.8999999761581421,0.000125
0.00032261828891932964,1.0,0.5301940441131592,0.8999999761581421,0.000125
0.0006943231564946473,1.0,0.5316571593284607,0.8999999761581421,0.000125
0.0010686601744964719,1.0,0.5340057611465454,0.8899999856948853,0.000125
0.0007647292222827673,1.0,0.543036937713623,0.8899999856948853,0.000125
0.0005371460574679077,1.0,0.5475761890411377,0.8899999856948853,0.000125
0.0011381648946553469,1.0,0.556589663028717,0.8899999856948853,0.000125
0.00023376497847493738,1.0,0.5689122080802917,0.8899999856948853,0.000125
0.0016911642160266638,1.0,0.5659999251365662,0.8899999856948853,1e-04
0.00038885974208824337,1.0,0.5632402896881104,0.8899999856948853,1e-04
0.0002882533008232713,1.0,0.5588642358779907,0.8899999856948853,1e-04
0.0006524428608827293,1.0,0.5522000193595886,0.8899999856948853,1e-04
0.0009912087116390467,1.0,0.5446950793266296,0.8799999952316284,1e-04
0.0005749358097091317,1.0,0.5378842353820801,0.8899999856948853,1e-04
0.000730572734028101,1.0,0.5348859429359436,0.8899999856948853,1e-04
0.0003820761921815574,1.0,0.5331526398658752,0.8899999856948853,1e-04
0.009550263173878193,1.0,0.5420303344726562,0.8899999856948853,1e-04
0.0008369007846340537,1.0,0.6307888627052307,0.8700000047683716,1e-04
0.0011983030708506703,1.0,0.6507729887962341,0.8700000047683716,1e-04
0.0005982313887216151,1.0,0.6237491369247437,0.8700000047683716,1e-04
0.0012292428873479366,1.0,0.5885390639305115,0.8799999952316284,1e-04
0.0051337601616978645,1.0,0.5827023983001709,0.8799999952316284,1e-04
0.0014494454953819513,1.0,0.5873868465423584,0.8799999952316284,1e-04
0.0025241151452064514,1.0,0.5318016409873962,0.8899999856948853,1e-04
0.0003299979434814304,1.0,0.523586094379425,0.8899999856948853,1e-04
0.0004253102233633399,1.0,0.5227603316307068,0.8899999856948853,1e-04
0.0010081211803480983,1.0,0.5225714445114136,0.8899999856948853,1e-04
0.0005487349117174745,1.0,0.5239854454994202,0.8899999856948853,1e-04
0.0002329803683096543,1.0,0.5247051119804382,0.8899999856948853,1e-04
0.00044047163100913167,1.0,0.5248935222625732,0.8899999856948853,1e-04
0.0009117845329456031,1.0,0.5229938626289368,0.8899999856948853,1e-04
0.0005023155827075243,1.0,0.5238410830497742,0.8899999856948853,1e-04
0.0003756456426344812,1.0,0.5222170352935791,0.8899999856948853,1e-04
0.000640262383967638,1.0,0.522020161151886,0.8899999856948853,1e-04
0.0005359125207178295,1.0,0.522202730178833,0.8899999856948853,1e-04
0.00041301242890767753,1.0,0.5227355360984802,0.8899999856948853,1e-04
0.0005394088220782578,1.0,0.5221349596977234,0.8899999856948853,1e-04
0.0007394627318717539,1.0,0.5181670188903809,0.8899999856948853,1e-04
0.0002254453720524907,1.0,0.5175453424453735,0.8899999856948853,1e-04
0.0006456177216023207,1.0,0.5177675485610962,0.8899999856948853,1e-04
0.0002200848248321563,1.0,0.5175923109054565,0.8899999856948853,1e-04
0.0012293978361412883,1.0,0.5192899107933044,0.8899999856948853,1e-04
0.0009175363229587674,1.0,0.5205877423286438,0.8899999856948853,1e-04
0.0004869591793976724,1.0,0.5196810364723206,0.8899999856948853,1e-04
0.00018157256999984384,1.0,0.5198051929473877,0.8899999856948853,1e-04
0.0007266514585353434,1.0,0.5207237005233765,0.8899999856948853,1e-04
0.0009379403200000525,1.0,0.5233423709869385,0.8899999856948853,1e-04
0.00028412180836312473,1.0,0.5261293649673462,0.8899999856948853,1e-04
0.0003331103071104735,1.0,0.5263431072235107,0.8899999856948853,1e-04
0.0008388265268877149,1.0,0.5310660004615784,0.8899999856948853,1e-04
0.00026214265380986035,1.0,0.5320671200752258,0.8899999856948853,1e-04
0.00014634789840783924,1.0,0.5317521095275879,0.8899999856948853,1e-04
0.000840847787912935,1.0,0.531006395816803,0.8899999856948853,1e-04
0.0002626114001031965,1.0,0.5320568084716797,0.8899999856948853,1e-04
0.0003343888674862683,1.0,0.5326159596443176,0.8899999856948853,1e-04
0.0005091024795547128,1.0,0.5355207324028015,0.8899999856948853,1e-04
0.0005747188115492463,1.0,0.5325723886489868,0.8899999856948853,1e-04
0.00033975380938500166,1.0,0.533080518245697,0.8899999856948853,1e-04
0.0006332688499242067,1.0,0.535489022731781,0.8899999856948853,1e-04
0.0007173477788455784,1.0,0.5389146208763123,0.8899999856948853,1e-04
0.0003306864819023758,1.0,0.5441688299179077,0.8899999856948853,1e-04
0.000717687071301043,1.0,0.5449091196060181,0.8899999856948853,1e-04
0.00024089551880024374,1.0,0.544161856174469,0.8799999952316284,1e-04
0.0006807420286349952,1.0,0.5379162430763245,0.8899999856948853,1e-04
0.0001740003499435261,1.0,0.5351929664611816,0.8899999856948853,1e-04
0.00035734366974793375,1.0,0.5335134267807007,0.8899999856948853,1e-04
0.000420696655055508,1.0,0.5344379544258118,0.8899999856948853,1e-04
0.00015102094039320946,1.0,0.5351747870445251,0.8899999856948853,1e-04
0.00040492601692676544,1.0,0.5350171327590942,0.8899999856948853,1e-04
0.00025665180874057114,1.0,0.5339053869247437,0.8899999856948853,1e-04
0.0005660029128193855,1.0,0.5319040417671204,0.8899999856948853,1e-04
0.00018509729125071317,1.0,0.5297214984893799,0.8899999856948853,1e-04
0.00041392381535843015,1.0,0.5293930172920227,0.8899999856948853,1e-04
0.0005467758746817708,1.0,0.526343822479248,0.8899999856948853,1e-04
0.0004537584900390357,1.0,0.5266751050949097,0.8899999856948853,1e-04
0.000163974124006927,1.0,0.5278876423835754,0.8899999856948853,1e-04
0.0014136037789285183,1.0,0.5344541072845459,0.8899999856948853,1e-04
0.00032287207432091236,1.0,0.5440975427627563,0.8799999952316284,1e-04
0.00045355851761996746,1.0,0.5451845526695251,0.8799999952316284,1e-04
0.00023932874319143593,1.0,0.5421939492225647,0.8799999952316284,1e-04
0.00023649021750316024,1.0,0.5395253896713257,0.8799999952316284,1e-04
0.0005391742452047765,1.0,0.5353724956512451,0.8899999856948853,1e-04
0.00036242426722310483,1.0,0.5333205461502075,0.8899999856948853,1e-04
0.000416316936025396,1.0,0.5316689014434814,0.8899999856948853,1e-04
0.0006654722383245826,1.0,0.5339731574058533,0.8899999856948853,1e-04
9.996227890951559e-05,1.0,0.5352620482444763,0.8899999856948853,1e-04
0.00015973740664776415,1.0,0.5357972979545593,0.8899999856948853,1e-04
0.0003100644680671394,1.0,0.5385118126869202,0.8899999856948853,1e-04
0.00024312501773238182,1.0,0.5399680733680725,0.8899999856948853,1e-04
0.0005600226577371359,1.0,0.5397657155990601,0.8899999856948853,1e-04
0.020090412348508835,0.9900000095367432,0.4880359172821045,0.8600000143051147,1e-04
0.003111317753791809,1.0,0.6168543100357056,0.7699999809265137,1e-04
0.013467706739902496,1.0,0.5297123789787292,0.8399999737739563,1e-04
0.0014392964076250792,1.0,0.4936058521270752,0.8600000143051147,1e-04
0.0012995413271710277,1.0,0.4914144277572632,0.8899999856948853,1e-04
0.009993895888328552,1.0,0.5460100173950195,0.8799999952316284,1e-04
0.001333707827143371,1.0,0.7777080535888672,0.8500000238418579,1e-04
0.0010824212804436684,1.0,0.8327844738960266,0.8500000238418579,1e-04
0.000909865484572947,1.0,0.7884035706520081,0.8600000143051147,1e-04
0.0008498928509652615,1.0,0.727281391620636,0.8500000238418579,1e-04
0.0003410138888284564,1.0,0.6748270988464355,0.8700000047683716,1e-04
0.0006688838475383818,1.0,0.6407102942466736,0.8799999952316284,1e-04
0.0009596745949238539,1.0,0.6156976222991943,0.8799999952316284,1e-04
0.002678637159988284,1.0,0.6126933693885803,0.8700000047683716,1e-04
0.0007218822720460594,1.0,0.6170895099639893,0.8700000047683716,1e-04
0.0010235848603770137,1.0,0.598392128944397,0.8700000047683716,1e-04
0.0006586674135178328,1.0,0.5711279511451721,0.8799999952316284,1e-04
0.0022035622969269753,1.0,0.5577295422554016,0.8799999952316284,1e-04
0.0022957816254347563,1.0,0.5561851263046265,0.8799999952316284,1e-04
0.0002835901395883411,1.0,0.5712260603904724,0.8799999952316284,1e-04
0.0006400187266990542,1.0,0.5703758001327515,0.8799999952316284,1e-04
0.003271074267104268,1.0,0.5000386238098145,0.8799999952316284,1e-04
0.0007565256091766059,1.0,0.5020849704742432,0.8700000047683716,1e-04
0.0013938166666775942,1.0,0.492221862077713,0.8700000047683716,1e-04
0.0005645694327540696,1.0,0.4905182123184204,0.8799999952316284,1e-04
0.0008811560110189021,1.0,0.4944307804107666,0.8899999856948853,1e-04
0.0004249250050634146,1.0,0.503516435623169,0.8899999856948853,1e-04
0.0004798776644747704,1.0,0.508784294128418,0.8899999856948853,1e-04
0.0003603847580961883,1.0,0.5115443468093872,0.8899999856948853,1e-04
0.00028296365053392947,1.0,0.5134022831916809,0.8899999856948853,1e-04
0.0003395853564143181,1.0,0.5171579122543335,0.8899999856948853,1e-04
0.0005364877288229764,1.0,0.5183040499687195,0.8899999856948853,1e-04
0.000300579093163833,1.0,0.518854022026062,0.8899999856948853,1e-04
0.0003649757127277553,1.0,0.5192029476165771,0.8899999856948853,1e-04
0.00032109758467413485,1.0,0.5194584131240845,0.8899999856948853,1e-04
0.00036700337659567595,1.0,0.5211278796195984,0.8899999856948853,1e-04
0.0003415292885620147,1.0,0.5215994119644165,0.8899999856948853,1e-04
0.00040989916305989027,1.0,0.5225376486778259,0.8899999856948853,1e-04
0.0005480592953972518,1.0,0.5270037055015564,0.8899999856948853,1e-04
0.0007605651626363397,1.0,0.5292372107505798,0.8899999856948853,1e-04
0.00028482102788984776,1.0,0.5314280986785889,0.8899999856948853,1e-04
0.00046632642624899745,1.0,0.5350105166435242,0.8899999856948853,1e-04
0.0012517591239884496,1.0,0.537574052810669,0.8899999856948853,1e-04
0.0004342916945461184,1.0,0.5416823625564575,0.8899999856948853,1e-04
0.0003848487976938486,1.0,0.5431736707687378,0.8899999856948853,1e-04
0.0004231236525811255,1.0,0.5443160533905029,0.8899999856948853,1e-04
0.0004454088630154729,1.0,0.5421215891838074,0.8899999856948853,1e-04
0.0002063930151052773,1.0,0.5411703586578369,0.8899999856948853,1e-04
0.0011374775785952806,1.0,0.5364987850189209,0.8899999856948853,1e-04
0.000540948414709419,1.0,0.5344035029411316,0.8899999856948853,1e-04
0.00020797018078155816,1.0,0.5336073040962219,0.8899999856948853,1e-04
0.0005227560759522021,1.0,0.5315049886703491,0.8899999856948853,1e-04
0.00036642898339778185,1.0,0.5321022272109985,0.8899999856948853,1e-04
0.0003023016906809062,1.0,0.5340117812156677,0.8899999856948853,1e-04
0.00015993291162885725,1.0,0.535668134689331,0.8899999856948853,1e-04
0.0015804398572072387,1.0,0.5263844132423401,0.8799999952316284,1e-04
0.00018454161181580275,1.0,0.5273351073265076,0.8799999952316284,1e-04
0.0008039951208047569,1.0,0.5280737280845642,0.8799999952316284,1e-04
0.08573568612337112,0.9599999785423279,1.3049097061157227,0.8299999833106995,1e-04
0.031768087297677994,0.9900000095367432,1.0102232694625854,0.8199999928474426,1e-04
0.06057174131274223,0.9800000190734863,0.5172538161277771,0.8799999952316284,1e-04
0.026417095214128494,0.9900000095367432,0.6097010970115662,0.8299999833106995,1e-04
0.0035422611981630325,1.0,0.7794663906097412,0.800000011920929,1e-04
0.0020711428951472044,1.0,0.6929193735122681,0.8199999928474426,1e-04
0.0015262337401509285,1.0,0.5833026766777039,0.8299999833106995,1e-04
0.000901346851605922,1.0,0.5221976041793823,0.8299999833106995,1e-04
0.0008808389538899064,1.0,0.4884023666381836,0.8399999737739563,1e-04
0.0025530094280838966,1.0,0.4558469355106354,0.8799999952316284,1e-04
0.0008426252752542496,1.0,0.44727203249931335,0.8899999856948853,1e-04
0.0014036797219887376,1.0,0.4515135884284973,0.8999999761581421,1e-04
0.002042545937001705,1.0,0.45480936765670776,0.8999999761581421,1e-04
0.001221254002302885,1.0,0.4587516784667969,0.8999999761581421,1e-04
0.001401245128363371,1.0,0.46524494886398315,0.8999999761581421,1e-04
0.0027328869327902794,1.0,0.464121013879776,0.8999999761581421,1e-04
0.0004084084939677268,1.0,0.464028000831604,0.8999999761581421,1e-04
0.0013141133822500706,1.0,0.4677796959877014,0.8999999761581421,1e-04
0.0005192537792026997,1.0,0.4729562997817993,0.8999999761581421,1e-04
0.0007560283411294222,1.0,0.47616636753082275,0.8999999761581421,1e-04
0.001561825629323721,1.0,0.4774612784385681,0.8999999761581421,1e-04
0.00349842244759202,1.0,0.5088836550712585,0.8799999952316284,1e-04
0.0005356826004572213,1.0,0.5276243686676025,0.8799999952316284,1e-04
0.0015986179932951927,1.0,0.5246726870536804,0.8799999952316284,1e-04
0.0004959971993230283,1.0,0.5196759104728699,0.8799999952316284,1e-04
0.0014033981133252382,1.0,0.5129590630531311,0.8899999856948853,1e-04
0.001894653309136629,1.0,0.5159047842025757,0.8799999952316284,1e-04
0.0005175324622541666,1.0,0.5180967450141907,0.8799999952316284,1e-04
0.0007890827837400138,1.0,0.5166178345680237,0.8799999952316284,1e-04
0.0007147382129915059,1.0,0.5139157772064209,0.8899999856948853,1e-04
0.0004584233392961323,1.0,0.5129913091659546,0.8899999856948853,1e-04
0.0004164543643128127,1.0,0.5102778077125549,0.8899999856948853,1e-04
0.0007196987280622125,1.0,0.5065491795539856,0.8999999761581421,1e-04
0.0010296026011928916,1.0,0.5036582946777344,0.8999999761581421,1e-04
0.0008761268691159785,1.0,0.5001323819160461,0.8999999761581421,1e-04
0.0007126170676201582,1.0,0.5001184344291687,0.8999999761581421,1e-04
0.0014031135942786932,1.0,0.5007858872413635,0.8999999761581421,1e-04
0.0003032405220437795,1.0,0.5000365972518921,0.8999999761581421,1e-04
0.0008528626058250666,1.0,0.5036954283714294,0.8999999761581421,1e-04
0.0002554032253101468,1.0,0.5062380433082581,0.8999999761581421,1e-04
0.0009516773279756308,1.0,0.5068625807762146,0.8999999761581421,1e-04
0.00033216484007425606,1.0,0.5078201293945312,0.8999999761581421,1e-04
0.0015679752686992288,1.0,0.514123797416687,0.8999999761581421,1e-04
0.003606291487812996,1.0,0.5313049554824829,0.8799999952316284,1e-04
0.0005860469536855817,1.0,0.5449791550636292,0.8799999952316284,1e-04
0.000614150776527822,1.0,0.543355405330658,0.8799999952316284,1e-04
0.0016196942888200283,1.0,0.546005368232727,0.8799999952316284,1e-04
0.0005201735766604543,1.0,0.5504343509674072,0.8799999952316284,1e-04
0.000254274345934391,1.0,0.547947883605957,0.8799999952316284,1e-04
0.0004616990627255291,1.0,0.5442438721656799,0.8799999952316284,1e-04
0.00028163977549411356,1.0,0.5378364324569702,0.8799999952316284,1e-04
0.0006692119059152901,1.0,0.5336639285087585,0.8999999761581421,1e-04
0.000570725358556956,1.0,0.5310043692588806,0.8999999761581421,1e-04
0.0018649675184860826,1.0,0.5344169735908508,0.8999999761581421,1e-04
0.000968106382060796,1.0,0.534644365310669,0.8999999761581421,1e-04
0.0020256577990949154,1.0,0.5246884226799011,0.8999999761581421,1e-04
0.0004863524518441409,1.0,0.5252010822296143,0.8999999761581421,1e-04
0.0010283879237249494,1.0,0.5216683745384216,0.8999999761581421,1e-04
0.0003798003017436713,1.0,0.5165205597877502,0.8999999761581421,1e-04
0.0009116762084886432,1.0,0.5146486759185791,0.8999999761581421,1e-04
0.00031920953188091516,1.0,0.5154563784599304,0.8999999761581421,1e-04
0.0009104337659664452,1.0,0.5198347568511963,0.8999999761581421,1e-04
0.0007249648333527148,1.0,0.5202525854110718,0.8999999761581421,1e-04
0.0004315682454034686,1.0,0.5218156576156616,0.8999999761581421,1e-04
0.0004541137896012515,1.0,0.5216761231422424,0.8999999761581421,1e-04
0.0003519906895235181,1.0,0.5223774909973145,0.8999999761581421,1e-04
0.0007276235264725983,1.0,0.5222688317298889,0.8899999856948853,1e-04
0.000693243055138737,1.0,0.5229660272598267,0.8899999856948853,1e-04
0.0006134231225587428,1.0,0.5247645378112793,0.8899999856948853,1e-04
0.0004861538182012737,1.0,0.5265496969223022,0.8899999856948853,1e-04
0.0002728900872170925,1.0,0.5274759531021118,0.8899999856948853,1e-04
0.0003751690383069217,1.0,0.5281267166137695,0.8899999856948853,1e-04
0.0009881312726065516,1.0,0.5277676582336426,0.8899999856948853,1e-04
0.0004509064892772585,1.0,0.5278582572937012,0.8899999856948853,1e-04
0.00037095200968906283,1.0,0.5268364548683167,0.8899999856948853,1e-04
0.0010228435276076198,1.0,0.5266667008399963,0.8899999856948853,1e-04
0.0011882949620485306,1.0,0.5286017060279846,0.8899999856948853,1e-04
0.00020088747260160744,1.0,0.5284385681152344,0.8899999856948853,1e-04
0.0008883532136678696,1.0,0.531099259853363,0.8899999856948853,1e-04
0.00041760143358260393,1.0,0.5359148383140564,0.8899999856948853,1e-04
0.00033097737468779087,1.0,0.5383627414703369,0.8899999856948853,1e-04
0.0005037724622525275,1.0,0.5383126735687256,0.8899999856948853,1e-04
0.00039261908386833966,1.0,0.5386731624603271,0.8899999856948853,1e-04
0.00030049795168451965,1.0,0.5376143455505371,0.8899999856948853,1e-04
0.0004661476123146713,1.0,0.5380491018295288,0.8899999856948853,1e-04
0.0004858796310145408,1.0,0.5377155542373657,0.8899999856948853,1e-04
0.00044341429020278156,1.0,0.5380410552024841,0.8899999856948853,1e-04
0.00028561369981616735,1.0,0.5389224886894226,0.8899999856948853,1e-04
0.0007368504884652793,1.0,0.5449556112289429,0.8899999856948853,1e-04
0.00030683845398016274,1.0,0.54563307762146,0.8899999856948853,1e-04
0.0003456837439443916,1.0,0.5446773767471313,0.8899999856948853,1e-04
0.00036555330734699965,1.0,0.5436605215072632,0.8899999856948853,1e-04
0.00032652923255227506,1.0,0.5428730249404907,0.8899999856948853,1e-04
0.0003969071840401739,1.0,0.5418765544891357,0.8899999856948853,1e-04
0.00017193630628753453,1.0,0.5426159501075745,0.8899999856948853,1e-04
0.00031303477589972317,1.0,0.5430998802185059,0.8899999856948853,1e-04
0.0003636570181697607,1.0,0.5431284308433533,0.8899999856948853,1e-04
0.0008234061533585191,1.0,0.5439707040786743,0.8899999856948853,1e-04
0.00021949665097054094,1.0,0.546964168548584,0.8899999856948853,1e-04
0.00015105601050890982,1.0,0.5468919277191162,0.8899999856948853,1e-04
0.00021022757573518902,1.0,0.5464514493942261,0.8899999856948853,1e-04
0.001199349295347929,1.0,0.5492428541183472,0.8899999856948853,1e-04
0.00023882382083684206,1.0,0.5494146943092346,0.8899999856948853,1e-04
0.0003545602085068822,1.0,0.5488461852073669,0.8899999856948853,1e-04
0.00024803559063002467,1.0,0.5482046604156494,0.8799999952316284,1e-04
0.0003335853398311883,1.0,0.5474627614021301,0.8799999952316284,1e-04
0.00022482225904241204,1.0,0.545489490032196,0.8899999856948853,1e-04
0.0005436213104985654,1.0,0.5435336232185364,0.8899999856948853,1e-04
0.0006417667027562857,1.0,0.5433643460273743,0.8899999856948853,1e-04
0.00023644909379072487,1.0,0.5427125096321106,0.8899999856948853,1e-04
0.0005110758356750011,1.0,0.5408389568328857,0.8899999856948853,1e-04
0.00047824421199038625,1.0,0.5392311215400696,0.8899999856948853,1e-04
0.0008977836114354432,1.0,0.537514865398407,0.8899999856948853,1e-04
0.0005089398473501205,1.0,0.5342578887939453,0.8899999856948853,1e-04
0.00016474019503220916,1.0,0.5321225523948669,0.8899999856948853,1e-04
0.0006799830007366836,1.0,0.5319150686264038,0.8899999856948853,1e-04
0.0014706463553011417,1.0,0.5414577722549438,0.8899999856948853,1e-04
0.0003675305924843997,1.0,0.5450075268745422,0.8799999952316284,1e-04
0.0006913950783200562,1.0,0.546202540397644,0.8799999952316284,1e-04
0.00030473704100586474,1.0,0.5463635921478271,0.8899999856948853,1e-04
0.0004721404693555087,1.0,0.542823314666748,0.8899999856948853,1e-04
0.00018497156270314008,1.0,0.541706919670105,0.8899999856948853,1e-04
0.00037554753362201154,1.0,0.5418441295623779,0.8899999856948853,1e-04
0.0003271647437941283,1.0,0.5429287552833557,0.8899999856948853,1e-04
0.0007177626830525696,1.0,0.5435490608215332,0.8899999856948853,1e-04
0.00023086935107130557,1.0,0.5444580316543579,0.8899999856948853,1e-04
0.00595491286367178,1.0,0.5114881992340088,0.8899999856948853,1e-04
0.00038544871495105326,1.0,0.5020836591720581,0.8899999856948853,1e-04
0.0011554922675713897,1.0,0.5042992234230042,0.8899999856948853,1e-04
0.0008156738476827741,1.0,0.5114834904670715,0.8899999856948853,1e-04
0.0017212250968441367,1.0,0.5234671235084534,0.8899999856948853,1e-04
0.0002864515990950167,1.0,0.5337095856666565,0.8899999856948853,1e-04
0.00035179167753085494,1.0,0.5361489057540894,0.8899999856948853,1e-04
0.0008721933700144291,1.0,0.5414666533470154,0.8899999856948853,1e-04
0.0003942727926187217,1.0,0.5507619976997375,0.8899999856948853,1e-04
0.0003588086401578039,1.0,0.5565593242645264,0.8899999856948853,1e-04
0.0003777802048716694,1.0,0.5581076145172119,0.8899999856948853,1e-04
0.0002699258620850742,1.0,0.5599615573883057,0.8899999856948853,1e-04
0.003232504241168499,1.0,0.5386773943901062,0.8899999856948853,1e-04
0.0009565447107888758,1.0,0.5372715592384338,0.8899999856948853,1e-04
0.00023772448184899986,1.0,0.5364134311676025,0.8899999856948853,1e-04
0.00017823433154262602,1.0,0.5361438393592834,0.8899999856948853,1e-04
0.0001460567000322044,1.0,0.5368244051933289,0.8899999856948853,1e-04
0.0004883297369815409,1.0,0.538542628288269,0.8899999856948853,1e-04
0.00027013279031962156,1.0,0.5403045415878296,0.8899999856948853,1e-04
0.0003423021989874542,1.0,0.544508159160614,0.8899999856948853,1e-04
0.00021677272161468863,1.0,0.5475102663040161,0.8899999856948853,1e-04
0.00030280061764642596,1.0,0.5492014288902283,0.8899999856948853,1e-04
0.00013812402903568,1.0,0.5507347583770752,0.8899999856948853,1e-04
0.0008668314549140632,1.0,0.5544281005859375,0.8899999856948853,1e-04
0.00020999561820644885,1.0,0.555635929107666,0.8899999856948853,1e-04
0.0007848634850233793,1.0,0.5583927035331726,0.8799999952316284,1e-04
0.0002714288712013513,1.0,0.5618016719818115,0.8799999952316284,1e-04
0.00029037758940830827,1.0,0.562827467918396,0.8799999952316284,1e-04
0.00032196901156567037,1.0,0.5630868077278137,0.8799999952316284,1e-04
0.000158088791067712,1.0,0.5625259280204773,0.8799999952316284,1e-04
0.0007362925098277628,1.0,0.5553683638572693,0.8799999952316284,1e-04
0.0006166210514493287,1.0,0.5520591735839844,0.8899999856948853,1e-04
0.0002868085284717381,1.0,0.5522907376289368,0.8899999856948853,1e-04
0.0001244396553374827,1.0,0.5530185103416443,0.8899999856948853,1e-04
0.0001809481909731403,1.0,0.5536648631095886,0.8799999952316284,1e-04
0.00023161580611485988,1.0,0.5539467334747314,0.8799999952316284,1e-04
0.0002821933012455702,1.0,0.5538693070411682,0.8899999856948853,1e-04
0.0004291075747460127,1.0,0.5537084937095642,0.8799999952316284,1e-04
0.00015801709378138185,1.0,0.5537992119789124,0.8899999856948853,1e-04
0.0004164591373410076,1.0,0.5555673241615295,0.8799999952316284,1e-04
0.00021810184989590198,1.0,0.5571259260177612,0.8799999952316284,1e-04
0.0002917736128438264,1.0,0.5586152076721191,0.8799999952316284,1e-04
0.0002809588913805783,1.0,0.5628529191017151,0.8799999952316284,1e-04
0.0003125250223092735,1.0,0.5632701516151428,0.8799999952316284,1e-04
0.0008284689392894506,1.0,0.5718530416488647,0.8799999952316284,1e-04
0.0002602621680125594,1.0,0.5756523013114929,0.8799999952316284,1e-04
0.00013987335842102766,1.0,0.574795663356781,0.8799999952316284,1e-04
0.0002863977279048413,1.0,0.5738295912742615,0.8799999952316284,1e-04
0.0002681612968444824,1.0,0.570931077003479,0.8799999952316284,1e-04
0.0002744203375186771,1.0,0.5671495795249939,0.8799999952316284,1e-04
0.00035234689130447805,1.0,0.565878689289093,0.8799999952316284,1e-04
0.0002955104864668101,1.0,0.5650178790092468,0.8799999952316284,1e-04
0.0006634221062995493,1.0,0.5688804388046265,0.8799999952316284,1e-04
0.0003015797701664269,1.0,0.5750068426132202,0.8799999952316284,1e-04
0.00012479964061640203,1.0,0.573209285736084,0.8799999952316284,1e-04
0.0005022719269618392,1.0,0.5755873322486877,0.8799999952316284,1e-04
0.0005370386643335223,1.0,0.5701389908790588,0.8799999952316284,1e-04
0.00019593012984842062,1.0,0.5651822090148926,0.8799999952316284,1e-04
0.000661406316794455,1.0,0.564893364906311,0.8799999952316284,1e-04
0.0002488737227395177,1.0,0.5646841526031494,0.8799999952316284,1e-04
0.0005279695033095777,1.0,0.5652453899383545,0.8799999952316284,1e-04
0.00039111755904741585,1.0,0.5693379044532776,0.8799999952316284,1e-04
0.0005825203261338174,1.0,0.5745915770530701,0.8799999952316284,1e-04
0.0002181504969485104,1.0,0.5778958797454834,0.8799999952316284,1e-04
0.0009345115977339447,1.0,0.5792524814605713,0.8799999952316284,1e-04
0.00025738339172676206,1.0,0.5862876772880554,0.8899999856948853,1e-04
0.00010466325329616666,1.0,0.5861227512359619,0.8899999856948853,1e-04
0.0003994983562733978,1.0,0.5836489796638489,0.8799999952316284,1e-04
0.0004051501746289432,1.0,0.5830914378166199,0.8799999952316284,1e-04
0.00020565510203596205,1.0,0.5815050005912781,0.8799999952316284,1e-04
0.00023510241589974612,1.0,0.5785562992095947,0.8799999952316284,1e-04
0.00016490809503011405,1.0,0.5752847790718079,0.8799999952316284,1e-04
0.0005936248344369233,1.0,0.5792179107666016,0.8799999952316284,1e-04
0.00022207539586815983,1.0,0.5797333717346191,0.8799999952316284,1e-04
0.00032141548581421375,1.0,0.5782443881034851,0.8799999952316284,1e-04
0.00011647777864709496,1.0,0.5767532587051392,0.8799999952316284,1e-04
0.0006293616606853902,1.0,0.5762497782707214,0.8799999952316284,1e-04
0.00016741285799071193,1.0,0.5737035274505615,0.8799999952316284,1e-04
0.0001977292849915102,1.0,0.5718369483947754,0.8799999952316284,1e-04
0.00026150274788960814,1.0,0.5704789161682129,0.8799999952316284,1e-04
0.00015087406791280955,1.0,0.5698441863059998,0.8799999952316284,1e-04
0.00021419144468382,1.0,0.5708075165748596,0.8799999952316284,1e-04
0.0008793806773610413,1.0,0.5789477825164795,0.8799999952316284,1e-04
0.00014932441990822554,1.0,0.585303008556366,0.8799999952316284,1e-04
0.00031953034340403974,1.0,0.5867622494697571,0.8799999952316284,1e-04
0.0007563412073068321,1.0,0.587948203086853,0.8799999952316284,1e-04
0.00021586673392448574,1.0,0.5880781412124634,0.8799999952316284,1e-04
0.0001894709130283445,1.0,0.5870224237442017,0.8799999952316284,1e-04
8.410578448092565e-05,1.0,0.585067093372345,0.8799999952316284,1e-04
0.0004468002589419484,1.0,0.5835342407226562,0.8799999952316284,1e-04
0.00012899171269964427,1.0,0.5802915096282959,0.8799999952316284,1e-04
0.00020579257397912443,1.0,0.5777677297592163,0.8799999952316284,1e-04
0.00022561606601811945,1.0,0.5754610300064087,0.8799999952316284,1e-04
0.00029048495343886316,1.0,0.5740526914596558,0.8799999952316284,1e-04
0.00011923470447072759,1.0,0.5725862383842468,0.8799999952316284,1e-04
0.00023982426500879228,1.0,0.573965311050415,0.8799999952316284,1e-04
0.00022449107200372964,1.0,0.5777050852775574,0.8799999952316284,1e-04
0.00037498626625165343,1.0,0.5810338854789734,0.8799999952316284,1e-04
0.00016589842562098056,1.0,0.5836249589920044,0.8799999952316284,1e-04
0.00015979375166352838,1.0,0.5852474570274353,0.8799999952316284,1e-04
0.000350991846062243,1.0,0.5843522548675537,0.8799999952316284,1e-04
0.00024067981576081365,1.0,0.5789915323257446,0.8799999952316284,1e-04
0.0002533957303967327,1.0,0.5766116976737976,0.8799999952316284,1e-04
0.0009404676384292543,1.0,0.5792829990386963,0.8799999952316284,1e-04
0.00021786156867165118,1.0,0.5823622345924377,0.8799999952316284,1e-04
0.000732497894205153,1.0,0.5826322436332703,0.8799999952316284,1e-04
9.89224499789998e-05,1.0,0.5828849673271179,0.8899999856948853,1e-04
0.0009272557217627764,1.0,0.5830339193344116,0.8899999856948853,1e-04
0.00023207646154332906,1.0,0.5731990337371826,0.8799999952316284,1e-04
0.0005477021913975477,1.0,0.5813753604888916,0.8899999856948853,1e-04
0.00023438374046236277,1.0,0.5819289684295654,0.8899999856948853,1e-04
0.00014488783199340105,1.0,0.5781878232955933,0.8799999952316284,1e-04
0.00027679119375534356,1.0,0.5753746032714844,0.8799999952316284,1e-04
0.0003214474127162248,1.0,0.5725603103637695,0.8799999952316284,1e-04
0.00023009415599517524,1.0,0.573845624923706,0.8799999952316284,1e-04
0.0004962112870998681,1.0,0.5743833780288696,0.8799999952316284,1e-04
8.834039908833802e-05,1.0,0.5742307901382446,0.8799999952316284,1e-04
0.0002613690448924899,1.0,0.5718880295753479,0.8799999952316284,1e-04
0.00020711908291559666,1.0,0.5697717070579529,0.8799999952316284,1e-04
0.0029909214936196804,1.0,0.6367571353912354,0.8799999952316284,1e-04
0.0003991068806499243,1.0,0.6574695706367493,0.8700000047683716,1e-04
0.00037823087768629193,1.0,0.6512123942375183,0.8700000047683716,1e-04
0.00016368979413527995,1.0,0.6341149806976318,0.8799999952316284,1e-04
0.00039118091808632016,1.0,0.6252678036689758,0.8799999952316284,1e-04
0.0006532579427585006,1.0,0.626491367816925,0.8799999952316284,1e-04
0.00022295016970019788,1.0,0.6241371035575867,0.8899999856948853,1e-04
0.0009070896194316447,1.0,0.6132307648658752,0.8799999952316284,1e-04
0.0003028493083547801,1.0,0.591584324836731,0.8799999952316284,1e-04
0.00032359722536057234,1.0,0.5880453586578369,0.8799999952316284,1e-04
0.0001449624978704378,1.0,0.5861921310424805,0.8799999952316284,1e-04
0.00011331389396218583,1.0,0.5847352147102356,0.8799999952316284,1e-04
0.0004992227768525481,1.0,0.5848714113235474,0.8799999952316284,1e-04
8.998695557238534e-05,1.0,0.5852283239364624,0.8799999952316284,1e-04
0.00010546575504122302,1.0,0.5850408673286438,0.8799999952316284,1e-04
0.0001936244807438925,1.0,0.5844640731811523,0.8799999952316284,1e-04
9.863285958999768e-05,1.0,0.5833301544189453,0.8799999952316284,1e-04
0.00024077524722088128,1.0,0.5838063359260559,0.8799999952316284,1e-04
9.828696784097701e-05,1.0,0.5858343243598938,0.8799999952316284,1e-04
0.00019802903989329934,1.0,0.5857476592063904,0.8799999952316284,1e-04
0.0004342453321442008,1.0,0.5858226418495178,0.8799999952316284,1e-04
0.0006816547829657793,1.0,0.5873599052429199,0.8799999952316284,1e-04
0.0004188498423900455,1.0,0.5899885296821594,0.8799999952316284,1e-04
0.0007162342080846429,1.0,0.6088169813156128,0.8899999856948853,1e-04
0.0014462792314589024,1.0,0.6086252331733704,0.8899999856948853,1e-04
0.00019154320762027055,1.0,0.6007475256919861,0.8799999952316284,1e-04
7.516492041759193e-05,1.0,0.5964763164520264,0.8799999952316284,1e-04
0.00016776869597379118,1.0,0.5937987565994263,0.8799999952316284,1e-04
0.00040087883826345205,1.0,0.597229540348053,0.8799999952316284,1e-04
0.00010643007408361882,1.0,0.5971779823303223,0.8799999952316284,1e-04
0.00029348276439122856,1.0,0.589216947555542,0.8799999952316284,1e-04
0.0009318819502368569,1.0,0.5805758833885193,0.8899999856948853,1e-04
0.00040352952782996,1.0,0.5704189538955688,0.8899999856948853,1e-04
0.0007579920347779989,1.0,0.5798417329788208,0.8799999952316284,1e-04
0.0002695010043680668,1.0,0.5841159224510193,0.8799999952316284,1e-04
0.0001993547339225188,1.0,0.5879092812538147,0.8799999952316284,1e-04
0.00016328992205671966,1.0,0.5893239378929138,0.8799999952316284,1e-04
0.00014003906107973307,1.0,0.5890714526176453,0.8799999952316284,1e-04
0.00011779272608691826,1.0,0.5879728198051453,0.8799999952316284,1e-04
0.00035360109177418053,1.0,0.5846276879310608,0.8799999952316284,1e-04
0.00020491066970862448,1.0,0.5832901000976562,0.8799999952316284,1e-04
0.00012632255675271153,1.0,0.5825300812721252,0.8899999856948853,1e-04
9.236168989446014e-05,1.0,0.5824062824249268,0.8899999856948853,1e-04
0.003474074648693204,1.0,0.5515149831771851,0.8899999856948853,1e-04
0.0008536817040294409,1.0,0.6474805474281311,0.8700000047683716,1e-04
0.0009329925524070859,1.0,0.55232173204422,0.8999999761581421,1e-04
0.0017654582625254989,1.0,0.5088506937026978,0.8899999856948853,1e-04
0.0007559286896139383,1.0,0.5325477719306946,0.8899999856948853,1e-04
0.00025406834902241826,1.0,0.55571448802948,0.8799999952316284,1e-04
0.00021648863912560046,1.0,0.5682877898216248,0.8799999952316284,1e-04
0.0012824918376281857,1.0,0.5717241764068604,0.8799999952316284,1e-04
0.00030432845233008265,1.0,0.5881383419036865,0.8899999856948853,1e-04
0.00017323438078165054,1.0,0.5913813710212708,0.8899999856948853,1e-04
0.00015517040446866304,1.0,0.5878463983535767,0.8899999856948853,1e-04
0.0004950787988491356,1.0,0.5821065902709961,0.8899999856948853,1e-04
0.0010197301162406802,1.0,0.5923982262611389,0.8899999856948853,1e-04
0.001447607297450304,1.0,0.5942139625549316,0.8899999856948853,1e-04
0.00012036196130793542,1.0,0.59946608543396,0.8799999952316284,1e-04
0.0003297376970294863,1.0,0.5868871212005615,0.8799999952316284,1e-04
0.00042056021629832685,1.0,0.5768222212791443,0.8799999952316284,1e-04
0.0002973967930302024,1.0,0.5684234499931335,0.8899999856948853,1e-04
0.00018039978749584407,1.0,0.5660405158996582,0.8899999856948853,1e-04
9.786150621948764e-05,1.0,0.566088855266571,0.8899999856948853,1e-04
0.0007957262569107115,1.0,0.5654633641242981,0.8899999856948853,1e-04
0.00043806139728985727,1.0,0.5696479678153992,0.8899999856948853,1e-04
0.00011534171062521636,1.0,0.5701205730438232,0.8899999856948853,1e-04
0.00010747390479082242,1.0,0.5717698335647583,0.8899999856948853,1e-04
0.0003444330650381744,1.0,0.5746135115623474,0.8799999952316284,1e-04
0.0002122986625181511,1.0,0.573621928691864,0.8899999856948853,1e-04
0.0002679263416212052,1.0,0.5748498439788818,0.8899999856948853,1e-04
0.0003882396558765322,1.0,0.5892090797424316,0.8799999952316284,1e-04
0.0001365055504720658,1.0,0.5951917767524719,0.8799999952316284,1e-04
0.00015716069901827723,1.0,0.5944355130195618,0.8799999952316284,1e-04
0.0002599436556920409,1.0,0.5920645594596863,0.8799999952316284,1e-04
0.00021371696493588388,1.0,0.5906755924224854,0.8799999952316284,1e-04
0.0001824877836043015,1.0,0.5875640511512756,0.8799999952316284,1e-04
0.0002123333397321403,1.0,0.5821508765220642,0.8799999952316284,1e-04
0.0001652996870689094,1.0,0.578289806842804,0.8799999952316284,1e-04
0.00022589121363125741,1.0,0.5749176740646362,0.8799999952316284,1e-04
8.962200081441551e-05,1.0,0.5727124810218811,0.8799999952316284,1e-04
9.038193093147129e-05,1.0,0.572476863861084,0.8799999952316284,1e-04
0.00037788855843245983,1.0,0.573437511920929,0.8799999952316284,1e-04
0.0005627666250802577,1.0,0.5725966095924377,0.8899999856948853,1e-04
0.0005078497342765331,1.0,0.5759313106536865,0.8899999856948853,1e-04
0.0006388241890817881,1.0,0.5969943404197693,0.8799999952316284,1e-04
0.0002958810073323548,1.0,0.6078171133995056,0.8799999952316284,1e-04
0.00016562576638534665,1.0,0.6103452444076538,0.8799999952316284,1e-04
0.0004589524760376662,1.0,0.6163415312767029,0.8899999856948853,1e-04
0.00022300910495687276,1.0,0.6109844446182251,0.8899999856948853,1e-04
9.170470002572984e-05,1.0,0.5966680645942688,0.8799999952316284,1e-04
0.00018588846432976425,1.0,0.5876638889312744,0.8799999952316284,1e-04
0.00020605679310392588,1.0,0.5819669961929321,0.8799999952316284,1e-04
0.00030220570624805987,1.0,0.5830265879631042,0.8799999952316284,1e-04
0.00013847350783180445,1.0,0.585365355014801,0.8799999952316284,1e-04
0.0005801889928989112,1.0,0.5931392908096313,0.8799999952316284,1e-04
0.00032847278635017574,1.0,0.5909517407417297,0.8799999952316284,1e-04
0.0003584171936381608,1.0,0.5704191327095032,0.8799999952316284,1e-04
0.0005120273563079536,1.0,0.5672364234924316,0.8899999856948853,1e-04
0.0003939609741792083,1.0,0.5687520503997803,0.8799999952316284,1e-04
0.00012955706915818155,1.0,0.5701262950897217,0.8799999952316284,1e-04
0.00042482861317694187,1.0,0.5768074989318848,0.8799999952316284,1e-04
0.0001338129659416154,1.0,0.5824949145317078,0.8799999952316284,1e-04
0.00020769871480297297,1.0,0.5842960476875305,0.8799999952316284,1e-04
0.00017319628386758268,1.0,0.5836937427520752,0.8799999952316284,1e-04
0.00021180191833991557,1.0,0.5840080380439758,0.8799999952316284,1e-04
0.00014186052430886775,1.0,0.5859954357147217,0.8799999952316284,1e-04
6.698944343952462e-05,1.0,0.5830780267715454,0.8799999952316284,1e-04
8.866656571626663e-05,1.0,0.582405149936676,0.8799999952316284,1e-04
0.0001556346978759393,1.0,0.5775803327560425,0.8799999952316284,1e-04
0.00022671658371109515,1.0,0.5762861371040344,0.8799999952316284,1e-04
0.00012576099834404886,1.0,0.5744373202323914,0.8899999856948853,1e-04
8.777210314292461e-05,1.0,0.5752559304237366,0.8899999856948853,1e-04
0.00010489202395547181,1.0,0.5770705342292786,0.8799999952316284,1e-04
0.0002617217833176255,1.0,0.5803914070129395,0.8799999952316284,1e-04
0.0001759100705385208,1.0,0.5865740180015564,0.8799999952316284,1e-04
0.00011181289301021025,1.0,0.588233470916748,0.8799999952316284,1e-04
0.0010080087231472135,1.0,0.56717848777771,0.8799999952316284,1e-04
6.819976260885596e-05,1.0,0.5563947558403015,0.8899999856948853,1e-04
0.00011898681259481236,1.0,0.5546124577522278,0.8899999856948853,1e-04
0.00042617839062586427,1.0,0.5606765747070312,0.8899999856948853,1e-04
0.0005795250181108713,1.0,0.5864498019218445,0.8799999952316284,1e-04
0.00011234922567382455,1.0,0.6056591868400574,0.8899999856948853,1e-04
0.00012007007171632722,1.0,0.6088030934333801,0.8899999856948853,1e-04
0.0002060676779365167,1.0,0.6073521971702576,0.8899999856948853,1e-04
0.0008822530508041382,1.0,0.6300798654556274,0.8899999856948853,1e-04
0.00019805160991381854,1.0,0.6371198892593384,0.8899999856948853,1e-04
0.0005010750610381365,1.0,0.6359568238258362,0.8899999856948853,1e-04
0.001300564268603921,1.0,0.5654664635658264,0.8899999856948853,1e-04
0.0003246544802095741,1.0,0.5396335124969482,0.8700000047683716,1e-04
0.00010606343857944012,1.0,0.5399302840232849,0.8700000047683716,1e-04
0.008259871043264866,1.0,0.6156831383705139,0.8700000047683716,1e-04
0.018952541053295135,0.9900000095367432,1.2479854822158813,0.800000011920929,1e-04
0.009224043227732182,1.0,1.0645172595977783,0.8100000023841858,1e-04
0.03478771820664406,0.9800000190734863,0.7856636047363281,0.8600000143051147,1e-04
0.001047233585268259,1.0,0.5898866653442383,0.8700000047683716,1e-04
0.006383691914379597,1.0,0.4974309206008911,0.8700000047683716,1e-04
0.0014293779386207461,1.0,0.47864091396331787,0.8700000047683716,1e-04
0.000996795715764165,1.0,0.4650750458240509,0.8700000047683716,1e-04
0.005223338026553392,1.0,0.47037169337272644,0.8600000143051147,1e-04
0.0005967017496004701,1.0,0.468226820230484,0.8500000238418579,1e-04
0.001260608434677124,1.0,0.4612681269645691,0.8600000143051147,1e-04
0.0004718726850114763,1.0,0.4592672288417816,0.8700000047683716,1e-04
0.0003903825127054006,1.0,0.45829784870147705,0.8700000047683716,1e-04
0.0003221278020646423,1.0,0.45891818404197693,0.8799999952316284,1e-04
0.0003696604399010539,1.0,0.46063700318336487,0.8799999952316284,1e-04
0.0011431345483288169,1.0,0.46928009390830994,0.8899999856948853,1e-04
0.0006228502606973052,1.0,0.4788223206996918,0.8899999856948853,1e-04
0.00034648910514079034,1.0,0.4863039255142212,0.8899999856948853,1e-04
0.00020504310668911785,1.0,0.49038591980934143,0.8899999856948853,1e-04
0.0005926370504312217,1.0,0.49515530467033386,0.8899999856948853,1e-04
0.000959493569098413,1.0,0.5055015683174133,0.8899999856948853,1e-04
0.0009838928235694766,1.0,0.5239443182945251,0.8999999761581421,1e-04
0.0003668453427962959,1.0,0.5389373898506165,0.8899999856948853,1e-04
0.00018479909340385348,1.0,0.5418170094490051,0.8899999856948853,1e-04
0.0001868289546109736,1.0,0.540796160697937,0.8999999761581421,1e-04
0.00023216202680487186,1.0,0.5381501913070679,0.8999999761581421,1e-04
0.0015687410486862063,1.0,0.5435468554496765,0.8999999761581421,1e-04
0.000489124795421958,1.0,0.5494046807289124,0.8899999856948853,1e-04
0.00032086402643471956,1.0,0.54949951171875,0.8899999856948853,1e-04
0.00013372751709539443,1.0,0.5483673810958862,0.8999999761581421,1e-04
0.00024142094480339438,1.0,0.5459672808647156,0.8999999761581421,1e-04
0.00011142573930555955,1.0,0.5416762232780457,0.8999999761581421,1e-04
0.0003120908804703504,1.0,0.5386844277381897,0.8999999761581421,1e-04
0.000288099457975477,1.0,0.5331971049308777,0.8899999856948853,1e-04
0.0002747464750427753,1.0,0.5306516289710999,0.8899999856948853,1e-04
0.000314927427098155,1.0,0.5290945172309875,0.8899999856948853,1e-04
0.0004091112350579351,1.0,0.5272625088691711,0.8899999856948853,1e-04
0.00047204087604768574,1.0,0.5277281403541565,0.8899999856948853,1e-04
0.0001913362357299775,1.0,0.5310797691345215,0.8899999856948853,1e-04
0.0002469591854605824,1.0,0.5352924466133118,0.8899999856948853,1e-04
0.00044759135926142335,1.0,0.534220278263092,0.8899999856948853,1e-04
0.0006878614658489823,1.0,0.535286545753479,0.8899999856948853,1e-04
0.00014789025590289384,1.0,0.5367672443389893,0.8899999856948853,1e-04
0.0007193408673629165,1.0,0.5384255647659302,0.8899999856948853,1e-04
0.00022784601605962962,1.0,0.542168378829956,0.8899999856948853,1e-04
0.00032130314502865076,1.0,0.5448829531669617,0.8999999761581421,1e-04
0.0011957325041294098,1.0,0.5609504580497742,0.8999999761581421,1e-04
0.00024699914501979947,1.0,0.5717800855636597,0.8899999856948853,1e-04
0.0015923709142953157,1.0,0.5834173560142517,0.8799999952316284,1e-04
0.00017783045768737793,1.0,0.591484546661377,0.8799999952316284,1e-04
0.0003752252378035337,1.0,0.5929505228996277,0.8899999856948853,1e-04
0.00028039453900419176,1.0,0.5940914750099182,0.8899999856948853,1e-04
0.00012768751184921712,1.0,0.5902767777442932,0.8899999856948853,1e-04
0.00012462747690733522,1.0,0.5841670036315918,0.8899999856948853,1e-04
0.00020742285414598882,1.0,0.577537477016449,0.8999999761581421,1e-04
0.000394734728615731,1.0,0.5735087990760803,0.8999999761581421,1e-04
0.00016884171054698527,1.0,0.5675836801528931,0.8999999761581421,1e-04
0.0004933159216307104,1.0,0.5623910427093506,0.8899999856948853,1e-04
0.00023836542095523328,1.0,0.5608582496643066,0.8899999856948853,1e-04
0.00015105954662431031,1.0,0.5594615340232849,0.8899999856948853,1e-04
0.00012684258399531245,1.0,0.558829128742218,0.8899999856948853,1e-04
0.0002143943274859339,1.0,0.5584537982940674,0.8899999856948853,1e-04
0.00022081904171500355,1.0,0.5598303079605103,0.8899999856948853,1e-04
0.0006112789851613343,1.0,0.5610921382904053,0.8899999856948853,1e-04
0.00016123912064358592,1.0,0.5617790222167969,0.8899999856948853,1e-04
0.00024293747264891863,1.0,0.5614521503448486,0.8899999856948853,1e-04
0.00013223224959801883,1.0,0.5586884021759033,0.8899999856948853,1e-04
0.00016722379950806499,1.0,0.5539531111717224,0.8899999856948853,1e-04
0.0003072299004998058,1.0,0.5475445985794067,0.8899999856948853,1e-04
0.00033843808341771364,1.0,0.5429840683937073,0.8899999856948853,1e-04
0.0002637843135744333,1.0,0.5416896343231201,0.8899999856948853,1e-04
0.0007862179772928357,1.0,0.5476146936416626,0.8899999856948853,1e-04
0.0001182214982691221,1.0,0.5494458079338074,0.8899999856948853,1e-04
0.00013550110452342778,1.0,0.5494918823242188,0.8899999856948853,1e-04
0.00011129197082482278,1.0,0.5485964417457581,0.8899999856948853,1e-04
0.000143780664075166,1.0,0.5481665730476379,0.8899999856948853,1e-04
0.00039403821574524045,1.0,0.5445675849914551,0.8899999856948853,1e-04
0.0001499508653068915,1.0,0.5426464080810547,0.8899999856948853,1e-04
0.00011932034249184653,1.0,0.5411286354064941,0.8899999856948853,1e-04
0.00021912764350418001,1.0,0.5406845211982727,0.8899999856948853,1e-04
0.000126961269415915,1.0,0.5394284129142761,0.8899999856948853,1e-04
0.00015993192209862173,1.0,0.539612352848053,0.8899999856948853,1e-04
0.00010785654012579471,1.0,0.5413641929626465,0.8899999856948853,1e-04
0.0004151990870013833,1.0,0.5472498536109924,0.8899999856948853,1e-04
0.00036441272823140025,1.0,0.5521795153617859,0.8899999856948853,1e-04
0.0001421133492840454,1.0,0.5539824962615967,0.8899999856948853,1e-04
0.000727716600522399,1.0,0.5554267764091492,0.8899999856948853,1e-04
0.0005953023210167885,1.0,0.55552077293396,0.8899999856948853,1e-04
8.822461677482352e-05,1.0,0.5559715032577515,0.8899999856948853,1e-04
0.00014591911167372018,1.0,0.5565634965896606,0.8899999856948853,1e-04
9.770385804586112e-05,1.0,0.5574567317962646,0.8899999856948853,1e-04
0.0007912308210507035,1.0,0.5530990362167358,0.8899999856948853,1e-04
6.0936054069316015e-05,1.0,0.5505897402763367,0.8899999856948853,1e-04
0.00023062089167069644,1.0,0.5522231459617615,0.8899999856948853,1e-04
0.00017924494750332087,1.0,0.5549367070198059,0.8899999856948853,1e-04
0.00010616589133860543,1.0,0.5560393333435059,0.8899999856948853,1e-04
0.00022875098511576653,1.0,0.5551259517669678,0.8899999856948853,1e-04
0.00015128502855077386,1.0,0.5558140277862549,0.8899999856948853,1e-04
0.0002258090826217085,1.0,0.5550678372383118,0.8899999856948853,1e-04
0.00010372040560469031,1.0,0.5545714497566223,0.8899999856948853,1e-04
0.00045891490299254656,1.0,0.5584480166435242,0.8899999856948853,1e-04
0.004031246993690729,1.0,0.5236636400222778,0.8899999856948853,1e-04
0.0008138505509123206,1.0,0.48002538084983826,0.8899999856948853,1e-04
0.0008815939072519541,1.0,0.4741749167442322,0.8899999856948853,1e-04
0.0014108658069744706,1.0,0.49307334423065186,0.8999999761581421,1e-04
0.0006757778464816511,1.0,0.5311868190765381,0.8799999952316284,1e-04
0.000253294943831861,1.0,0.5484851598739624,0.8799999952316284,1e-04
0.0001042153307935223,1.0,0.5529919266700745,0.8799999952316284,1e-04
0.00035296313581056893,1.0,0.5580745339393616,0.8799999952316284,1e-04
0.0004064166860189289,1.0,0.5580539703369141,0.8899999856948853,1e-04
0.00021984906925354153,1.0,0.5578835606575012,0.8899999856948853,1e-04
0.00037864421028643847,1.0,0.5575199723243713,0.8899999856948853,1e-04
8.658902515890077e-05,1.0,0.5564854145050049,0.8899999856948853,1e-04
0.000268374482402578,1.0,0.5567013025283813,0.8899999856948853,1e-04
0.00028528511757031083,1.0,0.5580421090126038,0.8899999856948853,1e-04
7.929133425932378e-05,1.0,0.5588783621788025,0.8899999856948853,1e-04
0.003086168086156249,1.0,0.6085850596427917,0.8799999952316284,1e-04
0.00018013962835539132,1.0,0.6571425795555115,0.8700000047683716,1e-04
0.0001488851848989725,1.0,0.6644249558448792,0.8700000047683716,1e-04
0.00011066153820138425,1.0,0.655937671661377,0.8700000047683716,1e-04
0.00038959376979619265,1.0,0.6358124613761902,0.8799999952316284,1e-04
0.00021802920673508197,1.0,0.6200252771377563,0.8899999856948853,1e-04
0.00013477301399689168,1.0,0.6085320115089417,0.8899999856948853,1e-04
0.00016484549269080162,1.0,0.60152268409729,0.8799999952316284,1e-04
0.0009616605821065605,1.0,0.5957105159759521,0.8899999856948853,1e-04
0.00018985543283633888,1.0,0.5903897285461426,0.8899999856948853,1e-04
0.00046748033491894603,1.0,0.5906394124031067,0.8899999856948853,1e-04
0.001200864207930863,1.0,0.565110981464386,0.8899999856948853,1e-04
0.0004758182039950043,1.0,0.5623748302459717,0.8899999856948853,1e-04
0.0002957023971248418,1.0,0.5640676617622375,0.8899999856948853,1e-04
8.480728865833953e-05,1.0,0.5651783347129822,0.8899999856948853,1e-04
0.0001831969857448712,1.0,0.5660497546195984,0.8899999856948853,1e-04
0.00027039548149332404,1.0,0.5652741193771362,0.8899999856948853,1e-04
0.0001198066893266514,1.0,0.5647406578063965,0.8899999856948853,1e-04
8.6091851699166e-05,1.0,0.5645939111709595,0.8899999856948853,1e-04
0.0007592220790684223,1.0,0.5646341443061829,0.8899999856948853,1e-04
9.609432891011238e-05,1.0,0.5628100633621216,0.8899999856948853,1e-04
0.00021078329882584512,1.0,0.5621759295463562,0.8899999856948853,1e-04
0.0002107244945364073,1.0,0.5615665316581726,0.8899999856948853,1e-04
6.410422793123871e-05,1.0,0.5615459680557251,0.8899999856948853,1e-04
0.00010088055569212884,1.0,0.5624478459358215,0.8899999856948853,1e-04
5.162999150343239e-05,1.0,0.5626428127288818,0.8899999856948853,1e-04
0.0005505277658812702,1.0,0.5655153393745422,0.8899999856948853,1e-04
4.59972106909845e-05,1.0,0.567380964756012,0.8899999856948853,1e-04
0.0001184985667350702,1.0,0.5701345205307007,0.8899999856948853,1e-04
0.00012537886505015194,1.0,0.5713802576065063,0.8899999856948853,1e-04
0.00022472228738479316,1.0,0.5713647603988647,0.8899999856948853,1e-04
0.0002126688341377303,1.0,0.5755021572113037,0.8899999856948853,1e-04
7.801566971465945e-05,1.0,0.577155590057373,0.8799999952316284,1e-04
0.00036212580744177103,1.0,0.5799075961112976,0.8799999952316284,1e-04
0.0003149976837448776,1.0,0.582399308681488,0.8799999952316284,1e-04
0.0007768993964418769,1.0,0.5862195491790771,0.8799999952316284,1e-04
0.0006862899172119796,1.0,0.5914499759674072,0.8899999856948853,1e-04
0.00045655324356630445,1.0,0.5944778323173523,0.8899999856948853,1e-04
0.00019975058967247605,1.0,0.5914296507835388,0.8899999856948853,1e-04
0.0001434328150935471,1.0,0.5884767174720764,0.8899999856948853,1e-04
0.0002784072421491146,1.0,0.5838435292243958,0.8899999856948853,1e-04
0.00020708248484879732,1.0,0.5819543600082397,0.8799999952316284,1e-04
0.00014382075460162014,1.0,0.5783200263977051,0.8799999952316284,1e-04
8.820811490295455e-05,1.0,0.5761843323707581,0.8799999952316284,1e-04
0.005340069066733122,1.0,0.5528051257133484,0.8700000047683716,1e-04
0.00018195988377556205,1.0,0.6326406598091125,0.8399999737739563,1e-04
0.0007768181967549026,1.0,0.6114685535430908,0.8399999737739563,1e-04
0.0004995677154511213,1.0,0.5375734567642212,0.8799999952316284,1e-04
6.902452150825411e-05,1.0,0.5288393497467041,0.8899999856948853,1e-04
0.00027384766144677997,1.0,0.534223198890686,0.8899999856948853,1e-04
0.00028423673938959837,1.0,0.5419384241104126,0.8899999856948853,1e-04
0.0007880275952629745,1.0,0.551034688949585,0.8899999856948853,1e-04
0.0008253243286162615,1.0,0.5696808099746704,0.8899999856948853,1e-04
0.00047201328561641276,1.0,0.5712335705757141,0.8899999856948853,1e-04
0.0002240972244180739,1.0,0.5713832378387451,0.8899999856948853,1e-04
9.478547872276977e-05,1.0,0.5715750455856323,0.8899999856948853,1e-04
0.00017851438315119594,1.0,0.5719299912452698,0.8899999856948853,1e-04
0.00015279307262971997,1.0,0.5675828456878662,0.8899999856948853,1e-04
0.00018530187662690878,1.0,0.5651721358299255,0.8899999856948853,1e-04
0.0001119859516620636,1.0,0.564119815826416,0.8899999856948853,1e-04
0.0001001044365693815,1.0,0.5647880434989929,0.8899999856948853,1e-04
0.0023644256871193647,1.0,0.5063890218734741,0.8899999856948853,1e-04
0.0003004379104822874,1.0,0.49730271100997925,0.8899999856948853,1e-04
0.00013644878345075995,1.0,0.4966299831867218,0.8899999856948853,1e-04
0.0002244150236947462,1.0,0.4993930459022522,0.8799999952316284,1e-04
0.0010961064836010337,1.0,0.5274494886398315,0.8899999856948853,1e-04
0.00023910142772365361,1.0,0.5526426434516907,0.8899999856948853,1e-04
0.000251843681326136,1.0,0.5674055218696594,0.8899999856948853,1e-04
0.00030577057623304427,1.0,0.5758212804794312,0.8899999856948853,1e-04
0.0001319967705057934,1.0,0.5768491625785828,0.8899999856948853,1e-04
9.295365452999249e-05,1.0,0.5740715265274048,0.8899999856948853,1e-04
0.00023026129929348826,1.0,0.5732364654541016,0.8899999856948853,1e-04
0.00016464586951769888,1.0,0.5735837817192078,0.8899999856948853,1e-04
0.00018801075930241495,1.0,0.57222580909729,0.8899999856948853,1e-04
9.800909901969135e-05,1.0,0.5706849098205566,0.8899999856948853,1e-04
0.0001013303262880072,1.0,0.5682756304740906,0.8899999856948853,1e-04
0.00011383266974007711,1.0,0.567781925201416,0.8899999856948853,1e-04
0.00012459751451388001,1.0,0.5662357807159424,0.8899999856948853,1e-04
0.0004795168060809374,1.0,0.561856210231781,0.8899999856948853,1e-04
6.207106343936175e-05,1.0,0.559272825717926,0.8899999856948853,1e-04
0.00012770059402100742,1.0,0.558020830154419,0.8899999856948853,1e-04
9.553725249134004e-05,1.0,0.5568851232528687,0.8899999856948853,1e-04
0.00010160879901377484,1.0,0.5562757253646851,0.8899999856948853,1e-04
0.0002454273635521531,1.0,0.5606442093849182,0.8899999856948853,1e-04
0.00018450530478730798,1.0,0.5653828382492065,0.8899999856948853,1e-04
7.26887010387145e-05,1.0,0.5679758191108704,0.8899999856948853,1e-04
0.00013117733760736883,1.0,0.5693783760070801,0.8899999856948853,1e-04
0.00021439828560687602,1.0,0.5727443695068359,0.8899999856948853,1e-04
0.00012679246719926596,1.0,0.5738009810447693,0.8899999856948853,1e-04
0.00010076980834128335,1.0,0.5723464488983154,0.8899999856948853,1e-04
0.00013681942073162645,1.0,0.5705434679985046,0.8899999856948853,1e-04
5.158255953574553e-05,1.0,0.5694844722747803,0.8899999856948853,1e-04
7.284722960321233e-05,1.0,0.5693398118019104,0.8899999856948853,1e-04
0.0002457087393850088,1.0,0.5711372494697571,0.8899999856948853,1e-04
0.0003319352981634438,1.0,0.5733722448348999,0.8899999856948853,1e-04
0.000298879953334108,1.0,0.5803797841072083,0.8899999856948853,1e-04
0.0001174558638012968,1.0,0.5853359699249268,0.8799999952316284,1e-04
6.087794463383034e-05,1.0,0.5852905511856079,0.8799999952316284,1e-04
0.00015385654114652425,1.0,0.5861107707023621,0.8799999952316284,1e-04
0.0002894273493438959,1.0,0.5908552408218384,0.8799999952316284,1e-04
0.00012467689521145076,1.0,0.5968762636184692,0.8799999952316284,1e-04
4.8209651140496135e-05,1.0,0.5967075824737549,0.8799999952316284,1e-04
0.00026459936634637415,1.0,0.592278242111206,0.8799999952316284,1e-04
7.88948600529693e-05,1.0,0.5860034823417664,0.8899999856948853,1e-04
0.0001177686353912577,1.0,0.5845698714256287,0.8899999856948853,1e-04
0.0001951944432221353,1.0,0.5823705792427063,0.8899999856948853,1e-04
9.159811452263966e-05,1.0,0.5815736055374146,0.8899999856948853,1e-04
6.620713975280523e-05,1.0,0.5829235315322876,0.8899999856948853,1e-04
8.667875226819888e-05,1.0,0.5834267139434814,0.8799999952316284,1e-04
0.0001132428806158714,1.0,0.583911120891571,0.8799999952316284,1e-04
3.511456452542916e-05,1.0,0.5835212469100952,0.8899999856948853,1e-04
5.52402161702048e-05,1.0,0.5834928750991821,0.8899999856948853,1e-04
0.00012394500663504004,1.0,0.5837494730949402,0.8899999856948853,1e-04
5.9243895520921797e-05,1.0,0.5843694806098938,0.8899999856948853,1e-04
4.281871588318609e-05,1.0,0.5841507911682129,0.8899999856948853,1e-04
7.773526886012405e-05,1.0,0.5837697386741638,0.8899999856948853,1e-04
0.0022118750493973494,1.0,0.5639992952346802,0.8899999856948853,1e-04
0.00026672714739106596,1.0,0.47312331199645996,0.8999999761581421,1e-04
0.00034460812457837164,1.0,0.4818230867385864,0.8999999761581421,1e-04
0.0006627634284086525,1.0,0.4920729100704193,0.8999999761581421,1e-04
0.00034545286325737834,1.0,0.5127214193344116,0.8899999856948853,1e-04
0.00022144443937577307,1.0,0.5341281890869141,0.8899999856948853,1e-04
0.0001989317242987454,1.0,0.552686870098114,0.8799999952316284,1e-04
0.00013352991663850844,1.0,0.5603330731391907,0.8799999952316284,1e-04
0.0003128481039311737,1.0,0.5704554915428162,0.8899999856948853,1e-04
4.4142921979073435e-05,1.0,0.5797422528266907,0.8899999856948853,1e-04
0.00047836409066803753,1.0,0.5877176523208618,0.8899999856948853,1e-04
0.00010594305786071345,1.0,0.592106819152832,0.8899999856948853,1e-04
7.441004709107801e-05,1.0,0.5910051465034485,0.8899999856948853,1e-04
0.00021192077838350087,1.0,0.5874884128570557,0.8899999856948853,1e-04
0.007901097647845745,1.0,0.5377740859985352,0.8899999856948853,1e-04
0.0014223242178559303,1.0,1.0645076036453247,0.800000011920929,1e-04
0.021877793595194817,1.0,0.583463191986084,0.8700000047683716,1e-04
0.0025727862957865,1.0,0.6983760595321655,0.8799999952316284,1e-04
0.000943296414334327,1.0,0.7293134927749634,0.8600000143051147,1e-04
0.0010878556640818715,1.0,0.6577259302139282,0.8600000143051147,1e-04
0.00047310625086538494,1.0,0.6124207377433777,0.8799999952316284,1e-04
0.0003675360349006951,1.0,0.5892444849014282,0.8799999952316284,1e-04
0.0005720086628571153,1.0,0.5659884214401245,0.8700000047683716,1e-04
0.0002830987505149096,1.0,0.5554578900337219,0.8899999856948853,1e-04
0.00037051294930279255,1.0,0.55157071352005,0.8899999856948853,1e-04
0.0004111066518817097,1.0,0.544258177280426,0.8899999856948853,1e-04
9.987848170567304e-05,1.0,0.5386579036712646,0.8899999856948853,1e-04
0.0005610781372524798,1.0,0.5365922451019287,0.8899999856948853,1e-04
0.00125116016715765,1.0,0.5329967141151428,0.8999999761581421,1e-04
0.0003393705701455474,1.0,0.5347580909729004,0.8799999952316284,1e-04
0.0004926037508994341,1.0,0.522977888584137,0.8999999761581421,1e-04
0.0007671936764381826,1.0,0.5196446180343628,0.8999999761581421,1e-04
0.0015541308093816042,1.0,0.5181810259819031,0.8999999761581421,1e-04
0.00017402654339093715,1.0,0.515383780002594,0.8899999856948853,1e-04
0.0001770891685737297,1.0,0.5161033868789673,0.8899999856948853,1e-04
0.0003584834048524499,1.0,0.5166540741920471,0.8899999856948853,1e-04
0.00021898228442296386,1.0,0.5173383355140686,0.8899999856948853,1e-04
0.00019453205459285527,1.0,0.5200111269950867,0.8899999856948853,1e-04
0.0005376820336095989,1.0,0.5230386257171631,0.8899999856948853,1e-04
0.0001979954686248675,1.0,0.524537980556488,0.8799999952316284,1e-04
0.0004951757728122175,1.0,0.5273247361183167,0.8799999952316284,1e-04
0.00028275090153329074,1.0,0.5309789776802063,0.8899999856948853,1e-04
0.00023636670084670186,1.0,0.5329145789146423,0.8899999856948853,1e-04
0.0008036746294237673,1.0,0.5347345471382141,0.8899999856948853,1e-04
0.00031993776792660356,1.0,0.5376627445220947,0.8899999856948853,1e-04
0.00018260742945130914,1.0,0.539807915687561,0.8899999856948853,1e-04
0.0017608398338779807,1.0,0.5385555028915405,0.8899999856948853,1e-04
0.00014251243555918336,1.0,0.5307037830352783,0.8999999761581421,1e-04
0.00016827283252496272,1.0,0.5282787680625916,0.8999999761581421,1e-04
9.858896373771131e-05,1.0,0.5288742184638977,0.8999999761581421,1e-04
0.0006884861504659057,1.0,0.537453293800354,0.8999999761581421,1e-04
0.0003016725822817534,1.0,0.548114001750946,0.8999999761581421,1e-04
9.414649684913456e-05,1.0,0.5532720685005188,0.8999999761581421,1e-04
0.0003464696928858757,1.0,0.5528984665870667,0.8999999761581421,1e-04
0.0001272335066460073,1.0,0.553471565246582,0.8899999856948853,1e-04
0.00040317882667295635,1.0,0.5582244396209717,0.8899999856948853,1e-04
0.00017324255895800889,1.0,0.5623586177825928,0.8899999856948853,1e-04
0.00031140813371166587,1.0,0.5669158697128296,0.8999999761581421,1e-04
0.0007205310394056141,1.0,0.5694475173950195,0.8999999761581421,1e-04
0.0005918110255151987,1.0,0.5812820196151733,0.8899999856948853,1e-04
0.0007881351630203426,1.0,0.5916552543640137,0.8899999856948853,1e-04
4.80403468827717e-05,1.0,0.5930622220039368,0.8899999856948853,1e-04
0.0001309008221141994,1.0,0.5912001132965088,0.8899999856948853,1e-04
0.0002808179415296763,1.0,0.5917019844055176,0.8899999856948853,1e-04
0.0001539873774163425,1.0,0.5903114676475525,0.8899999856948853,1e-04
9.158316242974252e-05,1.0,0.5882511734962463,0.8899999856948853,1e-04
0.0006673182360827923,1.0,0.5760439038276672,0.8899999856948853,1e-04
0.00015410978812724352,1.0,0.5630625486373901,0.8899999856948853,1e-04
0.0003885150945279747,1.0,0.5653148889541626,0.8899999856948853,1e-04
7.359655865002424e-05,1.0,0.5742582082748413,0.8999999761581421,1e-04
0.00017568649491295218,1.0,0.5785739421844482,0.8999999761581421,1e-04
0.00015467920457012951,1.0,0.5765539407730103,0.8999999761581421,1e-04
0.0001119881562772207,1.0,0.575092613697052,0.8999999761581421,1e-04
0.0004655874508898705,1.0,0.5879926085472107,0.8999999761581421,1e-04
7.551354065071791e-05,1.0,0.5920875668525696,0.8899999856948853,1e-04
0.0004078243800904602,1.0,0.5992926955223083,0.8899999856948853,1e-04
0.0002330897405045107,1.0,0.5983784198760986,0.8899999856948853,1e-04
5.929515100433491e-05,1.0,0.5976521968841553,0.8899999856948853,1e-04
9.478479478275403e-05,1.0,0.5943346619606018,0.8899999856948853,1e-04
9.688761929282919e-05,1.0,0.5897945165634155,0.8999999761581421,1e-04
0.00011920446559088305,1.0,0.5863675475120544,0.8999999761581421,1e-04
0.00012381606211420149,1.0,0.5846710801124573,0.8999999761581421,1e-04
3.698653381434269e-05,1.0,0.583396315574646,0.8899999856948853,1e-04
7.912470755400136e-05,1.0,0.5822625160217285,0.8899999856948853,1e-04
9.45677820709534e-05,1.0,0.5822035074234009,0.8899999856948853,1e-04
0.0001798565499484539,1.0,0.5814213156700134,0.8899999856948853,1e-04
0.00041748079820536077,1.0,0.5811976790428162,0.8899999856948853,1e-04
0.00016108941053971648,1.0,0.5791987776756287,0.8899999856948853,1e-04
9.951012907549739e-05,1.0,0.5787864327430725,0.8899999856948853,1e-04
0.00011112436914118007,1.0,0.5793923139572144,0.8899999856948853,1e-04
0.00011244295455981046,1.0,0.5787091255187988,0.8899999856948853,1e-04
0.00011967638420173898,1.0,0.5796427726745605,0.8899999856948853,1e-04
5.424180199042894e-05,1.0,0.5798922181129456,0.8899999856948853,1e-04
8.318870095536113e-05,1.0,0.580050528049469,0.8899999856948853,1e-04
0.0005169159849174321,1.0,0.5976242423057556,0.8999999761581421,1e-04
0.00014018305228091776,1.0,0.6025018095970154,0.8899999856948853,1e-04
6.924408808117732e-05,1.0,0.6016634106636047,0.8899999856948853,1e-04
5.864749982720241e-05,1.0,0.5993823409080505,0.8999999761581421,1e-04
0.00013964103709440678,1.0,0.5982654094696045,0.8999999761581421,1e-04
0.00027769646840170026,1.0,0.6021967530250549,0.8899999856948853,1e-04
0.0002525105664972216,1.0,0.5993838906288147,0.8899999856948853,1e-04
0.00012014707317575812,1.0,0.5968486666679382,0.8899999856948853,1e-04
0.00010760936129372567,1.0,0.5954853892326355,0.8799999952316284,1e-04
6.042080349288881e-05,1.0,0.5946170687675476,0.8799999952316284,1e-04
6.399599078577012e-05,1.0,0.5933887362480164,0.8899999856948853,1e-04
5.3332176321418956e-05,1.0,0.5922341346740723,0.8899999856948853,1e-04
6.257000495679677e-05,1.0,0.5916653275489807,0.8899999856948853,1e-04
0.00012858967238571495,1.0,0.5917390584945679,0.8899999856948853,1e-04
0.00010899680637521669,1.0,0.592796266078949,0.8899999856948853,1e-04
0.00011368026025593281,1.0,0.5903618335723877,0.8899999856948853,1e-04
0.0003363447613082826,1.0,0.5918523669242859,0.8899999856948853,1e-04
7.066298712743446e-05,1.0,0.5992088317871094,0.8799999952316284,1e-04
3.5949484299635515e-05,1.0,0.601947546005249,0.8799999952316284,1e-04
0.00017275879508815706,1.0,0.6015334129333496,0.8799999952316284,1e-04
0.0006586194504052401,1.0,0.6011126041412354,0.8799999952316284,1e-04
0.00022413254191633314,1.0,0.6003003120422363,0.8799999952316284,1e-04
0.00011334718146827072,1.0,0.5990284085273743,0.8799999952316284,1e-04
4.679205812863074e-05,1.0,0.5983780026435852,0.8899999856948853,1e-04
0.00013230089098215103,1.0,0.5971511006355286,0.8899999856948853,1e-04
9.171514102490619e-05,1.0,0.5942989587783813,0.8899999856948853,1e-04
0.00010927637049462646,1.0,0.5929717421531677,0.8899999856948853,1e-04
0.00024759757798165083,1.0,0.5982282757759094,0.8899999856948853,1e-04
7.546493725385517e-05,1.0,0.5987690091133118,0.8899999856948853,1e-04
0.00018789693422149867,1.0,0.5981387495994568,0.8899999856948853,1e-04
7.775255653541535e-05,1.0,0.5976279973983765,0.8899999856948853,1e-04
5.66950548090972e-05,1.0,0.5976515412330627,0.8899999856948853,1e-04
7.357653521467e-05,1.0,0.5979354977607727,0.8899999856948853,1e-04
6.579028558917344e-05,1.0,0.5981957316398621,0.8899999856948853,1e-04
8.117152174236253e-05,1.0,0.5975649952888489,0.8899999856948853,1e-04
2.788582605717238e-05,1.0,0.597571849822998,0.8899999856948853,1e-04
0.00013309120549820364,1.0,0.5982734560966492,0.8899999856948853,1e-04
0.00020279304590076208,1.0,0.5964998602867126,0.8899999856948853,1e-04
3.2700230804039165e-05,1.0,0.594076931476593,0.8899999856948853,1e-04
0.0001102411188185215,1.0,0.5939110517501831,0.8899999856948853,1e-04
9.70307009993121e-05,1.0,0.5948291420936584,0.8899999856948853,1e-04
5.072644125903025e-05,1.0,0.5962135791778564,0.8899999856948853,1e-04
0.000435687048593536,1.0,0.6115809679031372,0.8899999856948853,1e-04
0.00012364632857497782,1.0,0.6163922548294067,0.8899999856948853,1e-04
5.876243449165486e-05,1.0,0.616048276424408,0.8899999856948853,1e-04
5.7707678934093565e-05,1.0,0.6144717931747437,0.8899999856948853,1e-04
7.943804666865617e-05,1.0,0.612163245677948,0.8899999856948853,1e-04
5.448595038615167e-05,1.0,0.609459638595581,0.8899999856948853,1e-04
0.00013095435861032456,1.0,0.6085471510887146,0.8899999856948853,1e-04
0.00011261984764132649,1.0,0.6090790033340454,0.8899999856948853,1e-04
4.5861270336899906e-05,1.0,0.6098690032958984,0.8899999856948853,1e-04
9.055707778315991e-05,1.0,0.6107773780822754,0.8899999856948853,1e-04
0.00029388139955699444,1.0,0.6164164543151855,0.8799999952316284,1e-04
6.453690002672374e-05,1.0,0.6239860653877258,0.8899999856948853,1e-04
0.0002622760075610131,1.0,0.622261106967926,0.8899999856948853,1e-04
0.0002710804983507842,1.0,0.6186131238937378,0.8799999952316284,1e-04
0.00020941559341736138,1.0,0.6163451075553894,0.8799999952316284,1e-04
0.00010366013884777203,1.0,0.6155921220779419,0.8799999952316284,1e-04
0.00011706581426551566,1.0,0.6151934266090393,0.8899999856948853,1e-04
0.0002619977167341858,1.0,0.6152450442314148,0.8899999856948853,1e-04
0.00011582727893255651,1.0,0.6209487318992615,0.8799999952316284,1e-04
9.372879139846191e-05,1.0,0.6225961446762085,0.8799999952316284,1e-04
0.00011621090379776433,1.0,0.6263606548309326,0.8799999952316284,1e-04
0.00034813513047993183,1.0,0.6467649340629578,0.8899999856948853,1e-04
7.806681242072955e-05,1.0,0.6549280285835266,0.8899999856948853,1e-04
8.252698899013922e-05,1.0,0.6539854407310486,0.8899999856948853,1e-04
4.511780207394622e-05,1.0,0.6469115614891052,0.8799999952316284,1e-04
6.606402894249186e-05,1.0,0.6424020528793335,0.8799999952316284,1e-04
7.246106542879716e-05,1.0,0.6374133825302124,0.8799999952316284,1e-04
0.00011941451521124691,1.0,0.6351819634437561,0.8799999952316284,1e-04
0.0032543924171477556,1.0,0.6220104098320007,0.8899999856948853,1e-04
0.0012295810738578439,1.0,0.6027613878250122,0.8899999856948853,1e-04
0.001375843188725412,1.0,0.6237074136734009,0.8700000047683716,1e-04
0.0005737926694564521,1.0,0.6018962860107422,0.8700000047683716,1e-04
0.0018907446647062898,1.0,0.6018620729446411,0.8899999856948853,1e-04
0.00010665561421774328,1.0,0.6304875016212463,0.8899999856948853,1e-04
0.00025908363750204444,1.0,0.6361184120178223,0.8899999856948853,1e-04
0.00010703101725084707,1.0,0.6338681578636169,0.8899999856948853,1e-04
0.00012411568604875356,1.0,0.6283243894577026,0.8799999952316284,1e-04
9.563662024447694e-05,1.0,0.6246120929718018,0.8799999952316284,1e-04
8.354643068742007e-05,1.0,0.6222460269927979,0.8799999952316284,1e-04
3.701666719280183e-05,1.0,0.6205458045005798,0.8899999856948853,1e-04
0.00011481736873975024,1.0,0.6179633736610413,0.8899999856948853,1e-04
0.00010223659774055704,1.0,0.6159484386444092,0.8899999856948853,1e-04
0.0014814772875979543,1.0,0.7154609560966492,0.8700000047683716,1e-04
0.0012299022637307644,1.0,0.6998478770256042,0.8700000047683716,1e-04
0.00029613220249302685,1.0,0.6434897780418396,0.8700000047683716,1e-04
0.00018601591000333428,1.0,0.6000257730484009,0.8799999952316284,1e-04
0.00035193137591704726,1.0,0.5758073329925537,0.8899999856948853,1e-04
0.0005701083573512733,1.0,0.5590970516204834,0.8999999761581421,1e-04
0.00010675936937332153,1.0,0.5383004546165466,0.8899999856948853,1e-04
0.00012545405479613692,1.0,0.5376761555671692,0.8899999856948853,1e-04
6.0770409618271515e-05,1.0,0.5392468571662903,0.8899999856948853,1e-04
0.0003063914773520082,1.0,0.5363790392875671,0.8799999952316284,1e-04
0.00032903862302191556,1.0,0.5340113043785095,0.8799999952316284,1e-04
8.432759932475165e-05,1.0,0.532340407371521,0.8799999952316284,1e-04
0.00014998656115494668,1.0,0.5340859293937683,0.8799999952316284,1e-04
0.000140398828079924,1.0,0.5369636416435242,0.8799999952316284,1e-04
6.017900523147546e-05,1.0,0.5399768948554993,0.8899999856948853,1e-04
0.00021387847664300352,1.0,0.542419970035553,0.8899999856948853,1e-04
0.00013806721835862845,1.0,0.546183168888092,0.8899999856948853,1e-04
4.2823321564355865e-05,1.0,0.5497469902038574,0.8899999856948853,1e-04
0.000133217588881962,1.0,0.5529201626777649,0.8899999856948853,1e-04
9.794630022952333e-05,1.0,0.5584942102432251,0.8899999856948853,1e-04
0.00016255179070867598,1.0,0.563245415687561,0.8899999856948853,1e-04
0.00017514609498903155,1.0,0.5681115984916687,0.8899999856948853,1e-04
7.47010053601116e-05,1.0,0.5711359977722168,0.8899999856948853,1e-04
0.0001016914684441872,1.0,0.5733634829521179,0.8899999856948853,1e-04
4.939964128425345e-05,1.0,0.5739749670028687,0.8899999856948853,1e-04
0.00018155928410124034,1.0,0.5740101337432861,0.8899999856948853,1e-04
0.013734972104430199,1.0,0.6789313554763794,0.8600000143051147,1e-04
0.019937679171562195,1.0,0.6300234794616699,0.8199999928474426,1e-04
0.012695865705609322,1.0,1.7110083103179932,0.6399999856948853,1e-04
0.013205399736762047,1.0,0.9323437213897705,0.8199999928474426,1e-04
0.014619230292737484,0.9900000095367432,0.98305344581604,0.8500000238418579,1e-04
0.006452132016420364,1.0,1.8109023571014404,0.7900000214576721,1e-04
0.0021694113966077566,1.0,1.6985061168670654,0.7900000214576721,1e-04
0.005506004672497511,1.0,1.1987664699554443,0.8500000238418579,1e-04
0.0016298952978104353,1.0,0.9121807813644409,0.8500000238418579,1e-04
0.0011096129892393947,1.0,0.7920883297920227,0.8799999952316284,1e-04
0.0011348389089107513,1.0,0.7255690097808838,0.8799999952316284,1e-04
0.0010778456926345825,1.0,0.6963308453559875,0.8799999952316284,1e-04
0.0014074845239520073,1.0,0.6711819171905518,0.8799999952316284,1e-04
0.0004132312606088817,1.0,0.6468281745910645,0.8799999952316284,1e-04
0.002587277675047517,1.0,0.6250576972961426,0.8799999952316284,1e-04
0.0004432905407156795,1.0,0.6094104647636414,0.8899999856948853,1e-04
0.0005735621089115739,1.0,0.598025381565094,0.8899999856948853,1e-04
0.000290528463665396,1.0,0.5876233577728271,0.8899999856948853,1e-04
0.0004591885081026703,1.0,0.5815494060516357,0.8899999856948853,1e-04
0.14407840371131897,0.9599999785423279,0.9020439386367798,0.7900000214576721,1e-04
0.009702453389763832,0.9900000095367432,2.4092369079589844,0.5600000023841858,1e-04
0.030852647498250008,0.9900000095367432,2.2604000568389893,0.5699999928474426,1e-04
0.006425308529287577,1.0,1.131279706954956,0.7300000190734863,1e-04
0.0029895701445639133,1.0,0.7581364512443542,0.800000011920929,1e-04
0.002392727183178067,1.0,0.6377131938934326,0.8299999833106995,1e-04
0.002321096369996667,1.0,0.5789502859115601,0.8500000238418579,1e-04
0.0008441354148089886,1.0,0.5520975589752197,0.8600000143051147,1e-04
0.0008521023555658758,1.0,0.528719961643219,0.8399999737739563,1e-04
0.0004661122220568359,1.0,0.5132253170013428,0.8600000143051147,1e-04
0.002108651911839843,1.0,0.5021281242370605,0.8600000143051147,1e-04
0.0008583529270254076,1.0,0.49304500222206116,0.8600000143051147,1e-04
0.0007691502687521279,1.0,0.4874696433544159,0.8700000047683716,1e-04
0.0011817890917882323,1.0,0.48403456807136536,0.8700000047683716,1e-04
0.0009657449554651976,1.0,0.48329412937164307,0.8700000047683716,1e-04
0.0017944339197129011,1.0,0.48215118050575256,0.8700000047683716,1e-04
0.0016748906346037984,1.0,0.48163849115371704,0.8799999952316284,1e-04
0.0002552458900026977,1.0,0.4824344217777252,0.8799999952316284,1e-04
0.0006596854072995484,1.0,0.483942449092865,0.8799999952316284,1e-04
0.001196551602333784,1.0,0.4849478006362915,0.8799999952316284,1e-04
0.0004905631067231297,1.0,0.48739731311798096,0.8899999856948853,1e-04
0.0005085517186671495,1.0,0.49017098546028137,0.8999999761581421,1e-04
0.0009484037291258574,1.0,0.49062415957450867,0.8999999761581421,1e-04
0.0021192138083279133,1.0,0.49088042974472046,0.8999999761581421,1e-04
0.0007328602951020002,1.0,0.48996588587760925,0.8999999761581421,1e-04
0.0008748184773139656,1.0,0.4904579520225525,0.8999999761581421,1e-04
0.0004522532981354743,1.0,0.4913974106311798,0.8999999761581421,1e-04
0.0009825220331549644,1.0,0.49410101771354675,0.8999999761581421,1e-04
0.0007740953005850315,1.0,0.4968828856945038,0.8999999761581421,1e-04
0.00016883474017959088,1.0,0.49906739592552185,0.8999999761581421,1e-04
0.00030281252111308277,1.0,0.5016335844993591,0.8999999761581421,1e-04
0.0003468160575721413,1.0,0.5029688477516174,0.8999999761581421,1e-04
0.0004707586485892534,1.0,0.5054224133491516,0.8999999761581421,1e-04
0.00022598222130909562,1.0,0.5075586438179016,0.8999999761581421,1e-04
0.00020543647406157106,1.0,0.5087633728981018,0.8999999761581421,1e-04
0.0002754760498646647,1.0,0.5099178552627563,0.8999999761581421,1e-04
0.00020399077038746327,1.0,0.5107037425041199,0.8999999761581421,1e-04
0.0012303588446229696,1.0,0.516340970993042,0.8999999761581421,1e-04
0.0012119896709918976,1.0,0.524362325668335,0.8999999761581421,1e-04
0.00015300205268431455,1.0,0.5298228859901428,0.8999999761581421,1e-04
0.00012146547669544816,1.0,0.5304946899414062,0.8999999761581421,1e-04
0.0007225176086649299,1.0,0.5305458307266235,0.8999999761581421,1e-04
0.00018070392252411693,1.0,0.5295456051826477,0.8999999761581421,1e-04
0.00011747406824724749,1.0,0.5283203125,0.8999999761581421,1e-04
0.0003182291693519801,1.0,0.5287071466445923,0.8999999761581421,1e-04
0.0002982072182931006,1.0,0.5287988185882568,0.8999999761581421,1e-04
0.0006650713039562106,1.0,0.5282312631607056,0.8999999761581421,1e-04
0.00023241029703058302,1.0,0.5258077383041382,0.8999999761581421,1e-04
0.00031945708906278014,1.0,0.5256496071815491,0.8999999761581421,1e-04
0.0005760270869359374,1.0,0.5244864821434021,0.8999999761581421,1e-04
0.0002521496789995581,1.0,0.5220897197723389,0.8999999761581421,1e-04
0.0001667909527895972,1.0,0.5212299227714539,0.8999999761581421,1e-04
0.0001517455675639212,1.0,0.5203756093978882,0.8999999761581421,1e-04
0.00017975982336793095,1.0,0.520006537437439,0.8999999761581421,1e-04
0.00016835985297802836,1.0,0.5200439691543579,0.8999999761581421,1e-04
0.000367708649719134,1.0,0.5210182666778564,0.8999999761581421,1e-04
0.008006767369806767,1.0,0.47721680998802185,0.8899999856948853,1e-04
0.0006510214298032224,1.0,0.47604918479919434,0.8799999952316284,1e-04
0.0006532117258757353,1.0,0.4755813479423523,0.8799999952316284,1e-04
0.00082201644545421,1.0,0.4744754731655121,0.8899999856948853,1e-04
0.0008256076835095882,1.0,0.4797284007072449,0.8899999856948853,1e-04
0.002005181973800063,1.0,0.5015258193016052,0.8999999761581421,1e-04
0.000565541151445359,1.0,0.5189366936683655,0.8899999856948853,1e-04
0.0005006506107747555,1.0,0.5303581357002258,0.8899999856948853,1e-04
0.0006080260500311852,1.0,0.5379263162612915,0.8899999856948853,1e-04
0.00029025005642324686,1.0,0.5468530058860779,0.8899999856948853,1e-04
0.00023127022723201662,1.0,0.5487222075462341,0.8899999856948853,1e-04
0.0004165530845057219,1.0,0.5487978458404541,0.8899999856948853,1e-04
0.0004575155326165259,1.0,0.5504001379013062,0.8899999856948853,1e-04
0.000327721907524392,1.0,0.5527633428573608,0.8899999856948853,1e-04
0.0007860601181164384,1.0,0.5542853474617004,0.8899999856948853,1e-04
0.00024580577155575156,1.0,0.5575000047683716,0.8899999856948853,1e-04
0.00025476960581727326,1.0,0.5575402975082397,0.8899999856948853,1e-04
0.00011256495781708509,1.0,0.5573798418045044,0.8899999856948853,1e-04
0.00011028974404325709,1.0,0.5561039447784424,0.8899999856948853,1e-04
0.0010209790198132396,1.0,0.558268129825592,0.8899999856948853,1e-04
0.0001428216346539557,1.0,0.5587111711502075,0.8899999856948853,1e-04
0.0004435564624145627,1.0,0.5592541098594666,0.8899999856948853,1e-04
0.00012093823170289397,1.0,0.5583521723747253,0.8899999856948853,1e-04
0.00031090842094272375,1.0,0.5584044456481934,0.8899999856948853,1e-04
0.0001294779358431697,1.0,0.5580986142158508,0.8899999856948853,1e-04
0.00017981338896788657,1.0,0.5573585033416748,0.8899999856948853,1e-04
0.00017571516218595207,1.0,0.5557886362075806,0.8899999856948853,1e-04
0.0001776248391252011,1.0,0.5554444789886475,0.8899999856948853,1e-04
0.00022326892940327525,1.0,0.5550950765609741,0.8999999761581421,1e-04
0.0011433603940531611,1.0,0.5615379810333252,0.8899999856948853,1e-04
0.00029012636514380574,1.0,0.5629816651344299,0.8999999761581421,1e-04
0.0001265319879166782,1.0,0.5622552633285522,0.8999999761581421,1e-04
0.00015548714145552367,1.0,0.5613500475883484,0.8999999761581421,1e-04
0.0008624393958598375,1.0,0.5604317784309387,0.8999999761581421,1e-04
0.00011264942440902814,1.0,0.5594447255134583,0.8999999761581421,1e-04
0.00017479110101703554,1.0,0.5599292516708374,0.8999999761581421,1e-04
0.0008498325478285551,1.0,0.5603480339050293,0.8999999761581421,1e-04
0.0012781983241438866,1.0,0.5628035068511963,0.8999999761581421,1e-04
0.00022397468273993582,1.0,0.5667895674705505,0.8899999856948853,1e-04
0.00016147831047419459,1.0,0.5667910575866699,0.8899999856948853,1e-04
0.00044718891149386764,1.0,0.5644369721412659,0.8899999856948853,1e-04
0.00010680699779186398,1.0,0.5618141293525696,0.8999999761581421,1e-04
0.0006658922065980732,1.0,0.5579698085784912,0.8999999761581421,1e-04
0.000115718568849843,1.0,0.5550904273986816,0.8999999761581421,1e-04
0.00012333995255175978,1.0,0.5539759993553162,0.8899999856948853,1e-04
0.00014871872554067522,1.0,0.5540206432342529,0.8899999856948853,1e-04
0.0005128654302097857,1.0,0.5558329224586487,0.8999999761581421,1e-04
0.0003506043285597116,1.0,0.5568180084228516,0.8999999761581421,1e-04
0.00011353573063388467,1.0,0.5568839907646179,0.8899999856948853,1e-04
0.000191409548278898,1.0,0.5570682287216187,0.8899999856948853,1e-04
0.00046602130169048905,1.0,0.5587401390075684,0.8899999856948853,1e-04
0.00037022557808086276,1.0,0.5583899021148682,0.8899999856948853,1e-04
0.0002508502220734954,1.0,0.5580812692642212,0.8899999856948853,1e-04
0.00011178351269336417,1.0,0.5594179034233093,0.8899999856948853,1e-04
0.00016057323955465108,1.0,0.5597917437553406,0.8899999856948853,1e-04
0.00010450206900713965,1.0,0.5605198740959167,0.8899999856948853,1e-04
0.00015964815975166857,1.0,0.5605208873748779,0.8899999856948853,1e-04
0.00018274110334459692,1.0,0.5603898763656616,0.8899999856948853,1e-04
0.00011099062976427376,1.0,0.559999406337738,0.8899999856948853,1e-04
0.0002322255604667589,1.0,0.5598019361495972,0.8899999856948853,1e-04
0.000534648250322789,1.0,0.5673772692680359,0.8999999761581421,1e-04
0.0004628312890417874,1.0,0.5707604289054871,0.8999999761581421,1e-04
0.00016654022329021245,1.0,0.5724426507949829,0.8999999761581421,1e-04
5.855542985955253e-05,1.0,0.5719345808029175,0.8999999761581421,1e-04
0.00020283545018173754,1.0,0.5714766979217529,0.8999999761581421,1e-04
0.00015447617624886334,1.0,0.571158230304718,0.8999999761581421,1e-04
0.0009774937061592937,1.0,0.572533905506134,0.8999999761581421,1e-04
8.233092376030982e-05,1.0,0.5748378038406372,0.8999999761581421,1e-04
0.0005384347750805318,1.0,0.5789250731468201,0.8999999761581421,1e-04
0.0001947219716385007,1.0,0.579512357711792,0.8999999761581421,1e-04
7.29719758965075e-05,1.0,0.5787844061851501,0.8999999761581421,1e-04
0.00021701911464333534,1.0,0.5773027539253235,0.8999999761581421,1e-04
0.0005867804866284132,1.0,0.5746252536773682,0.8999999761581421,1e-04
0.0006727770087309182,1.0,0.5756423473358154,0.8999999761581421,1e-04
0.00011808272392954677,1.0,0.5786306262016296,0.8899999856948853,1e-04
0.00012863287702202797,1.0,0.5776084065437317,0.8899999856948853,1e-04
0.0001636282104300335,1.0,0.5764427781105042,0.8899999856948853,1e-04
5.1219569286331534e-05,1.0,0.5748423933982849,0.8899999856948853,1e-04
8.59836654854007e-05,1.0,0.5736108422279358,0.8999999761581421,1e-04
0.00033017483656294644,1.0,0.5731174945831299,0.8999999761581421,1e-04
0.0004965955158695579,1.0,0.5756274461746216,0.8999999761581421,1e-04
0.0007403595955111086,1.0,0.5814076066017151,0.8899999856948853,1e-04
0.00016790590598247945,1.0,0.5820773839950562,0.8899999856948853,1e-04
0.00016755399701651186,1.0,0.5792282223701477,0.8999999761581421,1e-04
6.162410136312246e-05,1.0,0.5770072340965271,0.8999999761581421,1e-04
0.00031477175070904195,1.0,0.5773810744285583,0.8999999761581421,1e-04
0.0006263469695113599,1.0,0.575835645198822,0.8999999761581421,1e-04
0.00011923063721042126,1.0,0.5722379088401794,0.8999999761581421,1e-04
0.00025590285076759756,1.0,0.5710753798484802,0.8999999761581421,1e-04
0.0001215553202200681,1.0,0.5693631172180176,0.8999999761581421,1e-04
9.477697312831879e-05,1.0,0.5686622262001038,0.8899999856948853,1e-04
0.00029443000676110387,1.0,0.5681077837944031,0.8899999856948853,1e-04
0.00015021773288026452,1.0,0.5665773749351501,0.8899999856948853,1e-04
5.08189586980734e-05,1.0,0.5662134885787964,0.8899999856948853,1e-04
8.962387073552236e-05,1.0,0.5664089918136597,0.8899999856948853,1e-04
0.00019158887153025717,1.0,0.5674834251403809,0.8999999761581421,1e-04
0.0001228102046297863,1.0,0.5683956742286682,0.8999999761581421,1e-04
0.0005159505526535213,1.0,0.5649294853210449,0.8899999856948853,1e-04
6.741418474121019e-05,1.0,0.5640360116958618,0.8899999856948853,1e-04
0.00020758219761773944,1.0,0.5646243095397949,0.8899999856948853,1e-04
6.577611929969862e-05,1.0,0.5654204487800598,0.8899999856948853,1e-04
0.00015160121256485581,1.0,0.5649487972259521,0.8899999856948853,1e-04
8.95863922778517e-05,1.0,0.5657199025154114,0.8899999856948853,1e-04
0.00016594472981523722,1.0,0.5664077997207642,0.8899999856948853,1e-04
0.0003695129998959601,1.0,0.567146360874176,0.8899999856948853,1e-04
5.847303327755071e-05,1.0,0.5676706433296204,0.8899999856948853,1e-04
8.214617264457047e-05,1.0,0.5681485533714294,0.8899999856948853,1e-04
0.00010417226440040395,1.0,0.5678684115409851,0.8899999856948853,1e-04
5.629965744446963e-05,1.0,0.5675920248031616,0.8899999856948853,1e-04
0.0001178399397758767,1.0,0.5676396489143372,0.8899999856948853,1e-04
0.00010097149788634852,1.0,0.5689247250556946,0.8899999856948853,1e-04
0.00023881805827841163,1.0,0.5673026442527771,0.8899999856948853,1e-04
0.0002046656736638397,1.0,0.5674156546592712,0.8899999856948853,1e-04
0.0001620568218640983,1.0,0.5688336491584778,0.8899999856948853,1e-04
0.00021206066594459116,1.0,0.5690886974334717,0.8899999856948853,1e-04
0.00010532519809203222,1.0,0.5689892768859863,0.8899999856948853,1e-04
0.00011705436918418854,1.0,0.5699989795684814,0.8899999856948853,1e-04
6.466088234446943e-05,1.0,0.570610523223877,0.8899999856948853,1e-04
0.0003289494779892266,1.0,0.5740261077880859,0.8899999856948853,1e-04
9.01862294995226e-05,1.0,0.576154351234436,0.8999999761581421,1e-04
3.563386417226866e-05,1.0,0.5766701102256775,0.8999999761581421,1e-04
7.36557922209613e-05,1.0,0.5777373313903809,0.8999999761581421,1e-04
0.0003525789943523705,1.0,0.5831624865531921,0.8999999761581421,1e-04
0.00013942192890681326,1.0,0.5869345664978027,0.8999999761581421,1e-04
6.08119044045452e-05,1.0,0.5877177119255066,0.8999999761581421,1e-04
0.00017825567920226604,1.0,0.5872514247894287,0.8999999761581421,1e-04
8.988138870336115e-05,1.0,0.5860245227813721,0.8999999761581421,1e-04
9.32388284127228e-05,1.0,0.5846382975578308,0.8999999761581421,1e-04
0.00018698461644817144,1.0,0.5829393267631531,0.8899999856948853,1e-04
0.00020960211986675858,1.0,0.5820165872573853,0.8899999856948853,1e-04
0.00012040590081596747,1.0,0.582583487033844,0.8899999856948853,1e-04
7.950760482344776e-05,1.0,0.5820226073265076,0.8899999856948853,1e-04
7.295623800018802e-05,1.0,0.5814369320869446,0.8899999856948853,1e-04
7.077133341226727e-05,1.0,0.5809423327445984,0.8899999856948853,1e-04
0.0003165247035212815,1.0,0.5841870307922363,0.8899999856948853,1e-04
0.00016429922834504396,1.0,0.584938108921051,0.8899999856948853,1e-04
0.00015379174146801233,1.0,0.5868656635284424,0.8899999856948853,1e-04
9.82138080871664e-05,1.0,0.5885090827941895,0.8899999856948853,1e-04
0.0002252953709103167,1.0,0.5909004211425781,0.8999999761581421,1e-04
0.00010560679947957397,1.0,0.5936806201934814,0.8999999761581421,1e-04
0.00010890401608776301,1.0,0.59377121925354,0.8999999761581421,1e-04
0.00011523623834364116,1.0,0.5927990078926086,0.8999999761581421,1e-04
8.757571049500257e-05,1.0,0.5923525094985962,0.8999999761581421,1e-04
7.898759940871969e-05,1.0,0.5909502506256104,0.8999999761581421,1e-04
7.823970372555777e-05,1.0,0.589258074760437,0.8899999856948853,1e-04
4.698203701991588e-05,1.0,0.5880498886108398,0.8899999856948853,1e-04
0.00013298615522217005,1.0,0.5876137614250183,0.8899999856948853,1e-04
0.0003866650222335011,1.0,0.5873717665672302,0.8899999856948853,1e-04
4.1332641558256e-05,1.0,0.5864110589027405,0.8899999856948853,1e-04
6.901729648234323e-05,1.0,0.585365891456604,0.8899999856948853,1e-04
5.999066706863232e-05,1.0,0.5847616195678711,0.8899999856948853,1e-04
0.0004162233672104776,1.0,0.5825201272964478,0.8899999856948853,1e-04
0.0002184057084377855,1.0,0.5825077891349792,0.8899999856948853,1e-04
0.00011645439371932298,1.0,0.5840829014778137,0.8899999856948853,1e-04
8.221653115469962e-05,1.0,0.5853698253631592,0.8899999856948853,1e-04
7.114533946150914e-05,1.0,0.5871521830558777,0.8899999856948853,1e-04
4.4751061068382114e-05,1.0,0.5876091122627258,0.8899999856948853,1e-04
5.2824663725914434e-05,1.0,0.5869969129562378,0.8899999856948853,1e-04
0.00011277322482783347,1.0,0.5854593515396118,0.8899999856948853,1e-04
0.00014491286128759384,1.0,0.5839880704879761,0.8899999856948853,1e-04
0.00013889891852159053,1.0,0.5829870104789734,0.8899999856948853,1e-04
0.00023698955192230642,1.0,0.5813406109809875,0.8899999856948853,1e-04
0.00025913366698659956,1.0,0.5810522437095642,0.8899999856948853,1e-04
4.5825298002455384e-05,1.0,0.5832559466362,0.8899999856948853,1e-04
0.00025786200421862304,1.0,0.5844952464103699,0.8899999856948853,1e-04
0.00011377322516636923,1.0,0.5811499953269958,0.8899999856948853,1e-04
0.0001072525410563685,1.0,0.5797365307807922,0.8899999856948853,1e-04
0.00013457759632728994,1.0,0.5797497630119324,0.8899999856948853,1e-04
3.670435762614943e-05,1.0,0.5800238847732544,0.8899999856948853,1e-04
0.000660646881442517,1.0,0.5852577090263367,0.8899999856948853,1e-04
5.6220331316580996e-05,1.0,0.5869247317314148,0.8899999856948853,1e-04
0.00028029244276694953,1.0,0.5872310400009155,0.8899999856948853,1e-04
5.659948874381371e-05,1.0,0.586646556854248,0.8899999856948853,1e-04
0.00018157226440962404,1.0,0.5872038006782532,0.8899999856948853,1e-04
0.00017319874314125627,1.0,0.5874649286270142,0.8899999856948853,1e-04
2.920804763562046e-05,1.0,0.5869141221046448,0.8899999856948853,1e-04
0.00011374281893949956,1.0,0.5854435563087463,0.8899999856948853,1e-04
4.180953328614123e-05,1.0,0.5845537781715393,0.8899999856948853,1e-04
3.012695196957793e-05,1.0,0.5843449234962463,0.8899999856948853,1e-04
7.4106763349846e-05,1.0,0.584393322467804,0.8899999856948853,1e-04
0.00010212334018433467,1.0,0.5847285985946655,0.8899999856948853,1e-04
0.00013879146717954427,1.0,0.5870341658592224,0.8899999856948853,1e-04
6.138053868198767e-05,1.0,0.5889378190040588,0.8899999856948853,1e-04
0.0001242566795554012,1.0,0.5897484421730042,0.8899999856948853,1e-04
5.982711081742309e-05,1.0,0.5897703766822815,0.8899999856948853,1e-04
0.00011886194988619536,1.0,0.5896353125572205,0.8899999856948853,1e-04
4.1238417907152325e-05,1.0,0.590516209602356,0.8899999856948853,1e-04
